Wavelength	REM49059000002.asd
350	 3.17158284569855 
351	 3.99634040165629 
352	 3.76306339743989 
353	 4.01231287397306 
354	 4.5807838009494 
355	 5.01245467381386 
356	 4.88283246728989 
357	 4.90773309027468 
358	 5.40054366400094 
359	 6.14146099552375 
360	 5.72167908969703 
361	 5.75831458925647 
362	 6.4315510286117 
363	 6.99301005602652 
364	 7.34680377179397 
365	 7.3224292902548 
366	 7.0808212488435 
367	 8.368878413525 
368	 8.97332483767607 
369	 8.3587120565 
370	 9.1608304899619 
371	 9.70405149086288 
372	 9.54333259377148 
373	 8.87303625094996 
374	 9.67414032483387 
375	 10.6271811761869 
376	 10.4958881245022 
377	 10.9310073454776 
378	 10.8659930294545 
379	 10.4018257813137 
380	 11.4550349157096 
381	 12.1085330992383 
382	 12.3092078860963 
383	 12.7009343329605 
384	 12.4157599883607 
385	 12.7614417021734 
386	 14.2905039588416 
387	 13.8477143835126 
388	 13.6461748945847 
389	 14.463812880044 
390	 15.299737733333 
391	 16.3724570789958 
392	 17.1822604399124 
393	 17.1438148977902 
394	 17.7926152702322 
395	 18.4243264064511 
396	 18.6085168766159 
397	 20.0536971936254 
398	 20.9284172666941 
399	 21.0815510277884 
400	 22.4973283744757 
401	 23.459876619365 
402	 24.2175160885978 
403	 25.6548856284351 
404	 26.8138225791706 
405	 27.7543015770156 
406	 28.7001829699577 
407	 29.9331522759811 
408	 30.8648260652103 
409	 31.5180792441196 
410	 32.7434357269112 
411	 34.1027896116815 
412	 35.2446823187112 
413	 35.955056634696 
414	 37.7704751067986 
415	 40.5180373854503 
416	 43.3788835220838 
417	 44.4020421294348 
418	 44.844214193728 
419	 45.7352173452311 
420	 47.8846591147477 
421	 49.9687774856039 
422	 51.6483294208593 
423	 53.0959390281801 
424	 55.2735105897452 
425	 57.2575739099283 
426	 58.306054373424 
427	 60.3021258701592 
428	 62.2777843721183 
429	 63.7389327834293 
430	 65.1223747141511 
431	 67.1813848805105 
432	 69.6110647531545 
433	 71.3616131619211 
434	 72.0275525081338 
435	 72.7639004591275 
436	 74.7010688370635 
437	 76.0949295768518 
438	 77.8709560762863 
439	 79.9862991321915 
440	 79.340417581696 
441	 79.9778758972776 
442	 82.3504858264497 
443	 83.9184004142653 
444	 85.3015359111414 
445	 86.5023165948027 
446	 87.4531723904395 
447	 88.4784483367206 
448	 89.1345267367884 
449	 89.3622131598503 
450	 90.6031304580816 
451	 91.7963742065085 
452	 92.4979594439814 
453	 92.957049367992 
454	 93.5885079076719 
455	 94.5149316958089 
456	 95.6552245888117 
457	 96.2710712134098 
458	 96.9519410682181 
459	 98.0877662140346 
460	 97.790764694124 
461	 98.4965519229798 
462	 100.597624693431 
463	 100.112057930908 
464	 100.52359946916 
465	 101.853078409928 
466	 101.904679591628 
467	 103.119873907502 
468	 104.894015277754 
469	 105.88173071747 
470	 105.962232169569 
471	 106.450662576706 
472	 107.899066864461 
473	 108.297009030792 
474	 109.1203868393 
475	 110.409569054496 
476	 110.40404219206 
477	 112.026879776262 
478	 114.530358357052 
479	 115.665148944543 
480	 116.890306522904 
481	 118.367500802537 
482	 119.956500641237 
483	 121.137312937695 
484	 122.617893960726 
485	 124.531969818395 
486	 125.646719369608 
487	 127.810754629637 
488	 130.612127568328 
489	 131.932856821655 
490	 133.843145704257 
491	 135.999805731562 
492	 137.479511870288 
493	 138.761125604415 
494	 140.685213689945 
495	 143.637706868427 
496	 146.64047423416 
497	 149.227494975835 
498	 151.619227564168 
499	 155.172573668175 
500	 157.835196970601 
501	 160.141452562322 
502	 163.870520825599 
503	 166.257498883301 
504	 168.964809571617 
505	 173.808129511665 
506	 177.543830000183 
507	 180.922120241839 
508	 184.773445774633 
509	 189.523944903473 
510	 194.060058523614 
511	 198.193779626124 
512	 202.597393463382 
513	 208.06623440844 
514	 214.350096606064 
515	 220.662531746626 
516	 226.135027098395 
517	 232.349016475604 
518	 240.555168211123 
519	 248.682502625716 
520	 257.249932000313 
521	 266.512097025992 
522	 275.988752613102 
523	 286.145026539916 
524	 296.647315799089 
525	 306.505146603525 
526	 318.49040225838 
527	 331.230113912795 
528	 342.345600394055 
529	 354.182768121694 
530	 366.32031471755 
531	 378.081827849927 
532	 389.212548583344 
533	 399.883825624954 
534	 410.376158017435 
535	 421.267608768795 
536	 431.737972957081 
537	 441.44764816378 
538	 450.31077205085 
539	 459.071880523144 
540	 468.043995557286 
541	 477.197807227537 
542	 485.03784038729 
543	 493.215313759901 
544	 502.620176653441 
545	 511.089279694697 
546	 519.071675021194 
547	 526.862285063392 
548	 534.590652288708 
549	 542.435235086355 
550	 550.235196284679 
551	 557.580571424902 
552	 563.639247759088 
553	 568.28046900314 
554	 571.760377014636 
555	 575.150419473611 
556	 578.205733608055 
557	 580.486222702287 
558	 581.336273875866 
559	 581.318115343851 
560	 580.297143586492 
561	 577.242183655194 
562	 574.352119674948 
563	 571.423363708862 
564	 567.194004840257 
565	 562.096354110762 
566	 556.035472924053 
567	 549.222645271342 
568	 543.82923140309 
569	 537.564150658357 
570	 529.717648876653 
571	 523.53832153434 
572	 518.327373913914 
573	 513.297471829756 
574	 507.242897279268 
575	 502.275027416683 
576	 498.502436102514 
577	 495.291566825108 
578	 492.968394252072 
579	 491.393884394645 
580	 490.56846432183 
581	 491.411631086149 
582	 493.128995867904 
583	 495.599894974584 
584	 500.335530944938 
585	 505.677871700132 
586	 510.628632483097 
587	 514.537836886384 
588	 517.32312076805 
589	 518.137124338174 
590	 516.265864915122 
591	 514.398253196722 
592	 512.357773369075 
593	 509.571464207627 
594	 505.737888306674 
595	 501.591232603179 
596	 497.285938071386 
597	 492.102224590175 
598	 484.826298891875 
599	 476.946665892864 
600	 472.007700972523 
601	 465.99194785381 
602	 459.069702202815 
603	 452.629821976277 
604	 447.29868897976 
605	 442.760401353628 
606	 438.528127069816 
607	 434.204492724229 
608	 429.043342678501 
609	 423.463635034291 
610	 419.845304368071 
611	 415.862345903962 
612	 411.737832967821 
613	 408.996148119048 
614	 405.93988996882 
615	 402.113644731557 
616	 397.661878675753 
617	 394.411371886664 
618	 390.982861792371 
619	 386.626453417607 
620	 383.107604878392 
621	 379.768547535267 
622	 376.052323762525 
623	 371.378957019065 
624	 365.955168223025 
625	 361.316128169184 
626	 359.667983960609 
627	 360.280787469266 
628	 362.035500223646 
629	 363.994676898003 
630	 366.994538789171 
631	 370.442383861457 
632	 373.939667123879 
633	 377.590032950544 
634	 381.944971105743 
635	 386.954834286746 
636	 391.986257150964 
637	 397.203959869448 
638	 402.283176011521 
639	 406.849964449983 
640	 412.114764226561 
641	 417.059937923359 
642	 420.936906498529 
643	 425.617456519673 
644	 430.103237287166 
645	 433.768357090229 
646	 436.658616805739 
647	 439.530801400511 
648	 442.525606579388 
649	 445.34913751571 
650	 447.787835156638 
651	 450.416092556184 
652	 453.851303993935 
653	 457.111931851516 
654	 459.282057314094 
655	 460.231860208313 
656	 461.877785549472 
657	 464.697056178505 
658	 468.133635635269 
659	 470.081069065987 
660	 471.733177879772 
661	 473.827929939577 
662	 476.9742127746 
663	 480.439197139555 
664	 483.258330474924 
665	 485.000366987469 
666	 488.031051558184 
667	 492.414831233302 
668	 497.505927649077 
669	 501.45755459366 
670	 504.921366616668 
671	 508.719845666542 
672	 514.037945263375 
673	 520.211262571686 
674	 526.273988456435 
675	 531.347030188962 
676	 537.380479471418 
677	 544.088824418827 
678	 550.860637769627 
679	 557.15100383675 
680	 563.813244255634 
681	 571.148019798813 
682	 578.841729226167 
683	 584.64136774156 
684	 589.536680397014 
685	 596.396966614543 
686	 601.509324870711 
687	 606.46160589906 
688	 613.183485553744 
689	 617.782557533643 
690	 622.611778911646 
691	 629.592367197909 
692	 638.583863538452 
693	 649.771456901129 
694	 664.229032443819 
695	 683.938885511218 
696	 709.099492062006 
697	 740.364142488418 
698	 778.550269070019 
699	 824.772264305698 
700	 880.176884031981 
701	 945.391229631536 
702	 1019.64392557715 
703	 1103.155280789 
704	 1195.73585827193 
705	 1296.44196707585 
706	 1407.16388188491 
707	 1527.04734530311 
708	 1654.09473226531 
709	 1792.56147046182 
710	 1941.452280389 
711	 2099.38204016325 
712	 2268.49159743353 
713	 2448.76319952189 
714	 2639.97296522065 
715	 2841.67309788601 
716	 3054.56181713644 
717	 3278.34715782134 
718	 3512.00742251408 
719	 3753.76699083862 
720	 4003.9140676049 
721	 4263.05785194664 
722	 4530.03671272169 
723	 4801.70322960689 
724	 5076.11861409649 
725	 5354.81864463829 
726	 5634.20301065289 
727	 5912.14039129173 
728	 6187.6749362038 
729	 6460.49329483068 
730	 6729.43326244505 
731	 6993.05808021639 
732	 7250.24307138179 
733	 7500.55996758562 
734	 7742.9877481391 
735	 7974.11690874248 
736	 8196.73568011228 
737	 8410.81661307538 
738	 8613.26386915143 
739	 8803.14053995673 
740	 8979.7974277603 
741	 9143.01092163039 
742	 9293.55681397318 
743	 9431.30500137018 
744	 9557.14382567486 
745	 9675.55443705862 
746	 9784.89482155801 
747	 9885.12597387475 
748	 9978.21479356443 
749	 10066.044977499 
750	 10144.4629890855 
751	 10207.4510602626 
752	 10263.8573158667 
753	 10311.3799912219 
754	 10348.6964970898 
755	 10384.1602816958 
756	 10413.9452921388 
757	 10436.8822064067 
758	 10455.4234797904 
759	 10469.2959656878 
760	 10478.8017420903 
761	 10484.5168123276 
762	 10488.0026401892 
763	 10489.0450038865 
764	 10487.3423976692 
765	 10483.8263905851 
766	 10475.8816428258 
767	 10463.4497907077 
768	 10449.7614321939 
769	 10433.8330579281 
770	 10416.6784796163 
771	 10399.6345903113 
772	 10379.5934419495 
773	 10357.8024255894 
774	 10335.603388135 
775	 10312.7655013563 
776	 10287.8238681285 
777	 10260.3703031389 
778	 10231.1766866231 
779	 10199.3880429349 
780	 10166.3134653682 
781	 10133.7256905023 
782	 10100.0139264157 
783	 10065.4468620075 
784	 10030.5418656434 
785	 9996.32394198845 
786	 9959.0548849926 
787	 9919.52445611819 
788	 9882.61997836939 
789	 9845.4055230947 
790	 9806.47071997376 
791	 9765.38440787061 
792	 9725.47818952895 
793	 9684.94765464247 
794	 9642.61088957698 
795	 9599.44011419091 
796	 9554.63772577192 
797	 9508.90832770617 
798	 9463.85762426317 
799	 9418.09301539934 
800	 9371.68006086355 
801	 9324.83710032449 
802	 9277.2141728518 
803	 9228.32115690214 
804	 9178.04585722649 
805	 9126.54090682581 
806	 9077.34492730151 
807	 9029.68744244211 
808	 8980.91666089263 
809	 8931.2624305247 
810	 8881.6785248248 
811	 8832.34766957392 
812	 8780.7608907865 
813	 8729.25797778295 
814	 8677.93829006362 
815	 8624.94257607747 
816	 8573.42062329267 
817	 8521.75325746468 
818	 8467.92249020442 
819	 8415.07269878787 
820	 8363.81760838873 
821	 8314.13540598409 
822	 8265.55933817627 
823	 8215.02219800254 
824	 8164.63702169945 
825	 8118.39623992525 
826	 8068.66007192737 
827	 8017.28047767703 
828	 7966.51998310974 
829	 7915.35582091862 
830	 7863.02415254674 
831	 7810.15959678309 
832	 7758.6848315273 
833	 7708.70140357741 
834	 7658.44886386474 
835	 7606.72198289314 
836	 7557.77958938431 
837	 7510.20585690039 
838	 7462.19969534653 
839	 7411.47808128561 
840	 7362.47508781194 
841	 7314.84798221124 
842	 7266.41210828383 
843	 7217.40795997329 
844	 7168.44261693144 
845	 7119.47892879058 
846	 7068.5539362495 
847	 7018.81511450246 
848	 6970.04309578183 
849	 6920.06674452369 
850	 6871.13991667527 
851	 6823.54756780231 
852	 6776.84531603705 
853	 6729.6577808465 
854	 6681.76336619893 
855	 6634.04045753262 
856	 6588.39238230289 
857	 6542.81267779513 
858	 6497.15748782638 
859	 6451.58493356551 
860	 6405.62829136055 
861	 6357.85450494071 
862	 6309.05616536395 
863	 6263.01478365591 
864	 6215.86288423364 
865	 6167.46211547408 
866	 6118.91383943214 
867	 6070.88395544302 
868	 6023.27882428717 
869	 5976.4277575685 
870	 5931.68273686356 
871	 5886.35924558417 
872	 5840.02387182823 
873	 5793.13758280269 
874	 5745.10769971258 
875	 5698.88733897473 
876	 5654.78954689309 
877	 5607.21764633135 
878	 5559.86982936628 
879	 5513.35154783722 
880	 5466.93483741426 
881	 5419.66689362113 
882	 5372.30344250126 
883	 5325.62667557798 
884	 5280.07563000184 
885	 5235.08403478519 
886	 5190.09482563068 
887	 5144.56271190859 
888	 5098.22292205168 
889	 5052.68699262477 
890	 5008.52052207218 
891	 4963.35129830873 
892	 4919.19261067469 
893	 4875.76925170288 
894	 4831.69830795398 
895	 4786.78085508197 
896	 4742.05125230989 
897	 4697.67019685792 
898	 4651.2756673253 
899	 4606.0081008702 
900	 4561.41887922358 
901	 4515.61408001437 
902	 4470.41021091792 
903	 4426.26311559956 
904	 4382.81943808184 
905	 4338.30585554138 
906	 4294.881368921 
907	 4252.55460986278 
908	 4210.54335723882 
909	 4169.51546948926 
910	 4128.98061466204 
911	 4088.3227080282 
912	 4046.87890254318 
913	 4004.7871821625 
914	 3963.35457161068 
915	 3923.54249731372 
916	 3881.5550165953 
917	 3839.3657687397 
918	 3797.94724219563 
919	 3756.38883284484 
920	 3716.4371554059 
921	 3676.88060228475 
922	 3636.23688692412 
923	 3595.85619494689 
924	 3555.95144786164 
925	 3516.22147595303 
926	 3475.9104723453 
927	 3434.73500483003 
928	 3394.49913643107 
929	 3356.43224995369 
930	 3318.85211144692 
931	 3280.51828261476 
932	 3241.29680521449 
933	 3201.86315795847 
934	 3162.14585175075 
935	 3124.39493459858 
936	 3088.72878846268 
937	 3050.17428598773 
938	 3012.61154845231 
939	 2975.27915294757 
940	 2936.29194727082 
941	 2898.27098876896 
942	 2861.46413831854 
943	 2825.26722146847 
944	 2788.28983036476 
945	 2752.37041072847 
946	 2717.00252047845 
947	 2681.26582410264 
948	 2644.90547498827 
949	 2609.23684275504 
950	 2573.93359323079 
951	 2537.67883565559 
952	 2501.62350806743 
953	 2466.89704058179 
954	 2433.51321780265 
955	 2399.41755931479 
956	 2366.13838958197 
957	 2333.0571643942 
958	 2299.25495912222 
959	 2265.92954416183 
960	 2233.73649910573 
961	 2202.48502012521 
962	 2171.26233034886 
963	 2140.69587091658 
964	 2109.80388355719 
965	 2078.47145230586 
966	 2049.32787740208 
967	 2020.29614502712 
968	 1991.35648233732 
969	 1962.89839125759 
970	 1932.66754902985 
971	 1903.69439131813 
972	 1876.11552031448 
973	 1846.95827007354 
974	 1818.23933851058 
975	 1790.50800397126 
976	 1763.45337205401 
977	 1735.39170047743 
978	 1707.41340840512 
979	 1680.02921594987 
980	 1653.24714897775 
981	 1625.4563529236 
982	 1599.05386985978 
983	 1574.16221042092 
984	 1548.75888913326 
985	 1523.34830822716 
986	 1497.84713133892 
987	 1472.33184924126 
988	 1447.27959001143 
989	 1422.33604959553 
990	 1398.19355752095 
991	 1375.07448774956 
992	 1350.12677499035 
993	 1326.26714251952 
994	 1303.22892398804 
995	 1279.05511161516 
996	 1256.12325642622 
997	 1233.06754135188 
998	 1209.5989809778 
999	 1187.12434511072 
1000	 1163.83940056269 
1001	 4662.83074324161 
1002	 4689.52197440782 
1003	 4716.05172312777 
1004	 4743.48519550515 
1005	 4771.83703072633 
1006	 4799.19932943934 
1007	 4827.79869663905 
1008	 4858.6861147801 
1009	 4888.92964649328 
1010	 4918.28086834018 
1011	 4949.27808614784 
1012	 4981.81903790732 
1013	 5012.81244406421 
1014	 5042.49994761029 
1015	 5071.38931183528 
1016	 5102.43815649529 
1017	 5134.96850717503 
1018	 5167.52899565308 
1019	 5202.97999594535 
1020	 5237.54491854243 
1021	 5271.21083252329 
1022	 5305.35683266928 
1023	 5338.82977276212 
1024	 5374.29972725525 
1025	 5410.17755411198 
1026	 5447.25527826337 
1027	 5485.67822356338 
1028	 5527.74335370188 
1029	 5567.62786769528 
1030	 5606.54155745217 
1031	 5647.70656780333 
1032	 5689.98019132746 
1033	 5732.00177122274 
1034	 5775.4738938112 
1035	 5818.82773595122 
1036	 5861.07547365595 
1037	 5905.40580157832 
1038	 5952.29028950557 
1039	 5996.83088958781 
1040	 6041.25181253298 
1041	 6086.11243180034 
1042	 6127.63257050379 
1043	 6169.53443059036 
1044	 6213.44670301544 
1045	 6256.80570712226 
1046	 6297.17940945945 
1047	 6336.83694254371 
1048	 6374.97650912534 
1049	 6409.51559745366 
1050	 6445.12593289495 
1051	 6481.31598438268 
1052	 6516.78824316007 
1053	 6550.748625802 
1054	 6585.13749378553 
1055	 6620.75780221602 
1056	 6654.00347691161 
1057	 6686.02204605275 
1058	 6717.5139300335 
1059	 6746.37231411503 
1060	 6776.14806910986 
1061	 6808.00242357783 
1062	 6841.0808623665 
1063	 6873.60751737743 
1064	 6908.80705580309 
1065	 6939.90879908528 
1066	 6966.75445171268 
1067	 6998.25281690352 
1068	 7029.16826162738 
1069	 7063.10379818106 
1070	 7102.6674054096 
1071	 7138.8668381276 
1072	 7172.66754716297 
1073	 7209.47994535326 
1074	 7245.56799618924 
1075	 7284.08889161609 
1076	 7327.16417334132 
1077	 7370.46537761755 
1078	 7416.68696551908 
1079	 7465.65744823547 
1080	 7515.08103360794 
1081	 7566.66445932377 
1082	 7618.94500559966 
1083	 7671.9067763176 
1084	 7726.08012768429 
1085	 7780.42995754731 
1086	 7838.25041729204 
1087	 7899.30751903282 
1088	 7959.86090146804 
1089	 8022.57127491412 
1090	 8085.71221703208 
1091	 8148.32902898859 
1092	 8212.75657843426 
1093	 8276.71534395123 
1094	 8341.641925175 
1095	 8407.11347520046 
1096	 8474.1046854976 
1097	 8537.23944797787 
1098	 8600.04746421696 
1099	 8662.11767171146 
1100	 8720.87546080333 
1101	 8780.40302692891 
1102	 8840.89547985893 
1103	 8900.35677540687 
1104	 8957.49549524926 
1105	 9015.93713793898 
1106	 9077.21548874076 
1107	 9135.06135336779 
1108	 9191.04190963252 
1109	 9247.03813814914 
1110	 9301.28196163344 
1111	 9352.18172631626 
1112	 9405.56977490996 
1113	 9461.02370813187 
1114	 9512.1324824479 
1115	 9560.45453517001 
1116	 9610.92323123829 
1117	 9660.12762148587 
1118	 9709.26351954231 
1119	 9761.78193657328 
1120	 9810.30262843551 
1121	 9853.97844840414 
1122	 9899.95462868021 
1123	 9946.59890414192 
1124	 9991.87924401337 
1125	 10036.7435647907 
1126	 10083.6007838288 
1127	 10124.097504983 
1128	 10160.8358886644 
1129	 10197.8909986379 
1130	 10231.0550159143 
1131	 10266.5058999352 
1132	 10304.6455642541 
1133	 10337.5805680789 
1134	 10366.9995149515 
1135	 10398.197910619 
1136	 10429.1582880093 
1137	 10456.8645427 
1138	 10484.3541178049 
1139	 10510.4920416604 
1140	 10532.1953206175 
1141	 10554.2752590672 
1142	 10576.1027891419 
1143	 10598.0175136571 
1144	 10621.1552686562 
1145	 10643.3524256193 
1146	 10667.0400371258 
1147	 10693.7704820111 
1148	 10717.6189352129 
1149	 10739.9139763635 
1150	 10763.0674578302 
1151	 10784.9230426531 
1152	 10808.8979487165 
1153	 10833.2903953297 
1154	 10859.3561083055 
1155	 10888.3649549603 
1156	 10915.7669247046 
1157	 10942.2674873356 
1158	 10970.7730414429 
1159	 11000.2418616407 
1160	 11029.2337836088 
1161	 11058.7376443821 
1162	 11090.1480780092 
1163	 11120.1998744875 
1164	 11148.5751203776 
1165	 11179.045297366 
1166	 11210.7484529061 
1167	 11242.4245117564 
1168	 11274.2607477319 
1169	 11307.1863145106 
1170	 11342.2897341222 
1171	 11374.7019047558 
1172	 11406.3000345583 
1173	 11438.240634464 
1174	 11468.010864311 
1175	 11499.294283935 
1176	 11534.0634173257 
1177	 11565.5404652673 
1178	 11595.5352461307 
1179	 11624.6040986462 
1180	 11653.5779570539 
1181	 11680.8718294954 
1182	 11707.998540971 
1183	 11734.8783148826 
1184	 11762.5873380554 
1185	 11789.2542605309 
1186	 11816.8118396529 
1187	 11846.0704326909 
1188	 11873.9886340153 
1189	 11900.0164657797 
1190	 11928.590252983 
1191	 11960.329351799 
1192	 11988.4482030504 
1193	 12014.3071071107 
1194	 12042.6478450847 
1195	 12070.1088216491 
1196	 12097.6858800844 
1197	 12128.5585724325 
1198	 12158.1793494255 
1199	 12185.1941737465 
1200	 12209.6875437089 
1201	 12234.6693417441 
1202	 12258.0362615309 
1203	 12282.9577826552 
1204	 12307.1949838276 
1205	 12332.9350594333 
1206	 12360.717114908 
1207	 12386.7229865876 
1208	 12414.2067087337 
1209	 12438.5066506615 
1210	 12458.8327665453 
1211	 12482.1825181556 
1212	 12505.1909102457 
1213	 12528.568843979 
1214	 12555.4879763573 
1215	 12579.3581011435 
1216	 12601.4839490661 
1217	 12622.0908300402 
1218	 12643.398888907 
1219	 12664.1229913327 
1220	 12686.4499572275 
1221	 12710.6608208173 
1222	 12732.7424000347 
1223	 12754.8084792991 
1224	 12776.0763955039 
1225	 12796.2281614958 
1226	 12815.9853239701 
1227	 12835.2568885759 
1228	 12854.8680120131 
1229	 12873.3827877263 
1230	 12892.4582348877 
1231	 12913.7358180506 
1232	 12932.0113663961 
1233	 12948.9795790778 
1234	 12965.636447932 
1235	 12981.1580959733 
1236	 12994.4492799404 
1237	 13010.0225559042 
1238	 13025.0507110689 
1239	 13040.9036772458 
1240	 13054.378112986 
1241	 13066.9024541056 
1242	 13076.9076302949 
1243	 13089.9832996911 
1244	 13103.509032596 
1245	 13116.6662626882 
1246	 13132.1461681613 
1247	 13144.6361102483 
1248	 13154.3365300167 
1249	 13165.6243136911 
1250	 13176.3373535111 
1251	 13187.9551023846 
1252	 13201.1137278954 
1253	 13212.8170776798 
1254	 13223.9239140555 
1255	 13235.0044574753 
1256	 13244.150952443 
1257	 13255.9888775473 
1258	 13267.7685071802 
1259	 13280.6822202838 
1260	 13296.569653722 
1261	 13308.0080761534 
1262	 13316.8070760779 
1263	 13326.4236587418 
1264	 13337.7463612404 
1265	 13347.3870195974 
1266	 13360.8207410725 
1267	 13378.9691068716 
1268	 13394.6845298896 
1269	 13409.2973601162 
1270	 13426.2774631851 
1271	 13445.1558168323 
1272	 13462.1361944805 
1273	 13480.5559199679 
1274	 13497.7715511971 
1275	 13513.0416219011 
1276	 13528.1758954093 
1277	 13545.3800871272 
1278	 13558.0327454782 
1279	 13567.9891920657 
1280	 13577.2712448655 
1281	 13582.2801456127 
1282	 13585.9403356929 
1283	 13586.0576074368 
1284	 13581.1915031618 
1285	 13573.9669596529 
1286	 13561.919710831 
1287	 13547.2813809377 
1288	 13530.7262151375 
1289	 13508.6626143399 
1290	 13481.9008413081 
1291	 13451.8303668055 
1292	 13416.3662759321 
1293	 13379.7393808582 
1294	 13340.3289689937 
1295	 13298.568801944 
1296	 13254.4676722993 
1297	 13207.754145019 
1298	 13157.1840020648 
1299	 13106.2995405098 
1300	 13053.7768384371 
1301	 13000.0822877644 
1302	 12946.004719823 
1303	 12888.5875007281 
1304	 12829.8515193472 
1305	 12770.2340514766 
1306	 12709.9673265055 
1307	 12653.7948473075 
1308	 12596.9438690833 
1309	 12538.7239613637 
1310	 12484.2103401407 
1311	 12429.1981012441 
1312	 12376.0679307547 
1313	 12325.7595598317 
1314	 12276.1412793469 
1315	 12225.0977616183 
1316	 12179.6928616233 
1317	 12139.691502043 
1318	 12096.9552641735 
1319	 12054.1183584363 
1320	 12015.8731293265 
1321	 11979.4654608663 
1322	 11943.3645940677 
1323	 11910.1631585239 
1324	 11878.0873205459 
1325	 11845.1332694295 
1326	 11814.9130871054 
1327	 11788.4194058699 
1328	 11763.6896431788 
1329	 11735.8218428761 
1330	 11707.5824053675 
1331	 11684.5027832055 
1332	 11662.4453798224 
1333	 11644.2306179534 
1334	 11629.7578812851 
1335	 11610.2350081669 
1336	 11595.5420246587 
1337	 11581.9573944055 
1338	 11563.3072821914 
1339	 11548.8400320009 
1340	 11536.2159288876 
1341	 11523.4867561387 
1342	 11511.327532051 
1343	 11501.6835582882 
1344	 11493.5690194204 
1345	 11485.4521915883 
1346	 11479.9194016145 
1347	 11472.5118243607 
1348	 11463.8777422434 
1349	 11456.6534567512 
1350	 11449.2228936606 
1351	 11442.9313677315 
1352	 11439.0403351708 
1353	 11433.0915540397 
1354	 11425.8742528594 
1355	 11419.1430130207 
1356	 11414.7018121993 
1357	 11409.844991397 
1358	 11406.558225832 
1359	 11407.7744646937 
1360	 11406.8751122949 
1361	 11405.8014107443 
1362	 11406.7344858985 
1363	 11406.4276170583 
1364	 11411.0361570735 
1365	 11416.1973957962 
1366	 11416.9925036502 
1367	 11418.7450702981 
1368	 11416.268192023 
1369	 11411.0265041654 
1370	 11399.2866489025 
1371	 11386.8086995994 
1372	 11363.0474763513 
1373	 11329.5023898899 
1374	 11292.7885281264 
1375	 11249.6029824642 
1376	 11202.1642441807 
1377	 11151.7235887487 
1378	 11092.8042628902 
1379	 11027.7371356066 
1380	 10955.4424012324 
1381	 10874.4138539448 
1382	 10789.1761709136 
1383	 10698.411083194 
1384	 10601.7542979843 
1385	 10498.9463255442 
1386	 10390.9125718339 
1387	 10274.9640018918 
1388	 10153.519636802 
1389	 10028.9713834027 
1390	 9896.85107026911 
1391	 9761.43076984063 
1392	 9623.62024786885 
1393	 9479.49900512089 
1394	 9333.95938140283 
1395	 9186.76868597369 
1396	 9038.76724092792 
1397	 8896.01639788651 
1398	 8754.56710851036 
1399	 8616.01163964472 
1400	 8481.79434723986 
1401	 8347.49980111071 
1402	 8210.33927145383 
1403	 8084.80687576739 
1404	 7963.33994117289 
1405	 7848.26669075332 
1406	 7742.78685465195 
1407	 7639.93954693476 
1408	 7540.31056345327 
1409	 7446.62358876453 
1410	 7359.33205946028 
1411	 7275.52544087124 
1412	 7195.08150155353 
1413	 7120.68253329252 
1414	 7052.47637474307 
1415	 6987.09555190254 
1416	 6926.31487454227 
1417	 6870.01726298582 
1418	 6816.83656693705 
1419	 6767.20659279759 
1420	 6722.34474835492 
1421	 6678.25531604514 
1422	 6635.92366269125 
1423	 6599.54548038182 
1424	 6564.89620970829 
1425	 6534.33571166161 
1426	 6507.25014757249 
1427	 6475.99406844476 
1428	 6448.75537245165 
1429	 6426.50902861309 
1430	 6403.06618341265 
1431	 6384.98233735091 
1432	 6367.36243843634 
1433	 6347.99279132801 
1434	 6332.35627570547 
1435	 6318.39379684375 
1436	 6307.38937286371 
1437	 6301.0783197475 
1438	 6291.96362190655 
1439	 6282.36963262716 
1440	 6276.54399529739 
1441	 6271.0610722328 
1442	 6267.10199950116 
1443	 6268.50058916664 
1444	 6267.14568874696 
1445	 6262.37630302555 
1446	 6260.87605199818 
1447	 6260.88720080561 
1448	 6262.20842559103 
1449	 6267.17209180694 
1450	 6269.84951766803 
1451	 6270.81403615779 
1452	 6274.30832101199 
1453	 6275.63584136888 
1454	 6281.91766743343 
1455	 6293.34544021958 
1456	 6304.07199795776 
1457	 6315.16368777714 
1458	 6328.06842744903 
1459	 6337.32445843116 
1460	 6349.2726339783 
1461	 6363.88868002834 
1462	 6379.75275804307 
1463	 6401.53535163565 
1464	 6423.44837152116 
1465	 6443.90185134119 
1466	 6467.18324682524 
1467	 6493.26242412381 
1468	 6521.92106023212 
1469	 6551.25674986912 
1470	 6581.51985758392 
1471	 6611.64608738182 
1472	 6642.32480294865 
1473	 6679.20769710853 
1474	 6720.93912581375 
1475	 6764.01184374109 
1476	 6804.27856431727 
1477	 6842.15788736272 
1478	 6876.00834354423 
1479	 6916.34977413685 
1480	 6955.82803662434 
1481	 6999.91115850845 
1482	 7052.4467245721 
1483	 7097.2714517559 
1484	 7139.2994242294 
1485	 7182.64079249985 
1486	 7223.45304280717 
1487	 7267.20862749744 
1488	 7313.00834627021 
1489	 7359.22322798164 
1490	 7406.59907160272 
1491	 7453.51867136979 
1492	 7501.8681074463 
1493	 7548.06033156789 
1494	 7593.13822238609 
1495	 7638.00488632864 
1496	 7680.39495238631 
1497	 7725.65169168189 
1498	 7772.59743330536 
1499	 7818.43068099413 
1500	 7866.22703928856 
1501	 7911.88900263452 
1502	 7954.6578088537 
1503	 7999.95777149635 
1504	 8046.30015443345 
1505	 8091.5325334763 
1506	 8136.99287149632 
1507	 8181.95514144901 
1508	 8225.81382362664 
1509	 8271.10275708528 
1510	 8312.11017405778 
1511	 8356.45401331788 
1512	 8400.30239091689 
1513	 8438.15183677082 
1514	 8481.73611719276 
1515	 8525.86097170496 
1516	 8563.9389115912 
1517	 8605.00447110955 
1518	 8645.7216351242 
1519	 8681.12554636376 
1520	 8718.90330488826 
1521	 8758.64643435205 
1522	 8793.1916168791 
1523	 8826.72776391727 
1524	 8861.48711318664 
1525	 8895.25777730937 
1526	 8931.79696604694 
1527	 8968.20767897561 
1528	 9002.15226748681 
1529	 9036.07410407957 
1530	 9067.92435438073 
1531	 9100.90200550403 
1532	 9136.47992097711 
1533	 9170.4472582752 
1534	 9203.44512587432 
1535	 9235.20236229392 
1536	 9264.67958867098 
1537	 9293.31211471329 
1538	 9322.50011978092 
1539	 9352.14780196243 
1540	 9378.84828745141 
1541	 9404.20104725316 
1542	 9431.22867488427 
1543	 9456.99863819423 
1544	 9482.55216786908 
1545	 9509.71219651111 
1546	 9533.78559136814 
1547	 9555.87848343241 
1548	 9577.78736087178 
1549	 9599.03770986933 
1550	 9619.99513500513 
1551	 9638.24794779427 
1552	 9658.71349036452 
1553	 9681.47903699672 
1554	 9701.88802773451 
1555	 9722.43486987269 
1556	 9741.95177536825 
1557	 9759.74508694503 
1558	 9776.42688053722 
1559	 9791.84994895388 
1560	 9808.43119546767 
1561	 9824.69496959892 
1562	 9840.16845800825 
1563	 9857.76054437636 
1564	 9871.06457378636 
1565	 9880.13640175307 
1566	 9891.66381181298 
1567	 9903.29486834596 
1568	 9912.69745861956 
1569	 9920.3397973825 
1570	 9930.52780905444 
1571	 9940.03322585136 
1572	 9950.28156566497 
1573	 9965.80345420311 
1574	 9975.19777666509 
1575	 9979.63522302533 
1576	 9986.68622508819 
1577	 9992.94705225089 
1578	 9997.8652366197 
1579	 10001.5951224699 
1580	 10008.0373698111 
1581	 10015.0691084677 
1582	 10021.1192280376 
1583	 10029.1225751521 
1584	 10036.6046284363 
1585	 10043.5635892579 
1586	 10047.7872141643 
1587	 10050.8104547668 
1588	 10055.1590687938 
1589	 10057.8614659782 
1590	 10060.1477020952 
1591	 10064.9342916695 
1592	 10067.2237648539 
1593	 10066.0031058538 
1594	 10065.1231232814 
1595	 10063.7427390756 
1596	 10062.7112592419 
1597	 10061.3856878526 
1598	 10059.6889253206 
1599	 10060.1342485736 
1600	 10057.1669652924 
1601	 10047.9512221877 
1602	 10045.2147484307 
1603	 10046.0294576455 
1604	 10044.0920981944 
1605	 10046.3098463397 
1606	 10044.0222548879 
1607	 10034.7288399673 
1608	 10029.3746463464 
1609	 10026.4316997061 
1610	 10021.8047509204 
1611	 10017.2455647688 
1612	 10011.9386446982 
1613	 10006.7069674698 
1614	 9998.22223247301 
1615	 9984.41076714739 
1616	 9977.48113882403 
1617	 9972.69981632546 
1618	 9966.50615556256 
1619	 9966.83505877052 
1620	 9961.5085916348 
1621	 9950.36441019103 
1622	 9940.3314212622 
1623	 9929.5806932889 
1624	 9918.43856468276 
1625	 9905.00603410758 
1626	 9893.97873949566 
1627	 9886.43158656902 
1628	 9874.60627956614 
1629	 9861.6915075683 
1630	 9848.25175342846 
1631	 9829.48209798049 
1632	 9814.84144780592 
1633	 9803.5801948235 
1634	 9790.80803954852 
1635	 9780.93436399665 
1636	 9766.65697139695 
1637	 9748.40438670363 
1638	 9732.13400820131 
1639	 9713.12990679406 
1640	 9696.48269275783 
1641	 9681.88260408235 
1642	 9667.61675867539 
1643	 9656.68694598093 
1644	 9641.47000751117 
1645	 9624.40011578893 
1646	 9607.59688263733 
1647	 9586.494958294 
1648	 9568.68299861817 
1649	 9554.81169696992 
1650	 9537.75185254392 
1651	 9521.70873723802 
1652	 9502.02398197374 
1653	 9477.76776063947 
1654	 9455.94928385689 
1655	 9432.5724585915 
1656	 9410.50270765574 
1657	 9392.70469390639 
1658	 9369.13249869645 
1659	 9342.52266620612 
1660	 9316.07096766618 
1661	 9286.13450894975 
1662	 9257.48707416754 
1663	 9229.32718389433 
1664	 9201.34200395893 
1665	 9171.72556604231 
1666	 9145.17225735381 
1667	 9121.61873597918 
1668	 9096.1553847135 
1669	 9072.24227462103 
1670	 9045.91102820285 
1671	 9015.90017188246 
1672	 8989.7262995627 
1673	 8965.36276206918 
1674	 8939.14604424724 
1675	 8914.88118766461 
1676	 8887.9169474402 
1677	 8857.7952277906 
1678	 8828.82452451896 
1679	 8799.05555592154 
1680	 8770.80498836875 
1681	 8744.19742104546 
1682	 8714.73287080449 
1683	 8684.64823517854 
1684	 8654.84185676439 
1685	 8622.58722007141 
1686	 8592.43077927601 
1687	 8564.85484804697 
1688	 8534.73046633689 
1689	 8503.58861683137 
1690	 8472.38484437626 
1691	 8439.90925486254 
1692	 8408.82784165587 
1693	 8378.77728950119 
1694	 8346.91669337703 
1695	 8314.81711055018 
1696	 8282.39635998075 
1697	 8247.69812026049 
1698	 8216.54924538455 
1699	 8187.43941975068 
1700	 8156.93138783504 
1701	 8127.7574128078 
1702	 8096.64653950867 
1703	 8063.42369796126 
1704	 8032.98321708665 
1705	 8003.82366899593 
1706	 7972.20985586075 
1707	 7941.18400238888 
1708	 7906.64401519856 
1709	 7871.98073017361 
1710	 7839.51583001464 
1711	 7808.0934061031 
1712	 7776.64816383134 
1713	 7744.99490644203 
1714	 7712.61749944794 
1715	 7677.4018709154 
1716	 7644.79057575738 
1717	 7612.25046901968 
1718	 7580.38563549265 
1719	 7549.10526411319 
1720	 7520.22403690732 
1721	 7487.47115359675 
1722	 7451.92763831295 
1723	 7417.62510647396 
1724	 7380.01902478585 
1725	 7345.19447681197 
1726	 7313.83630740723 
1727	 7281.70434883264 
1728	 7248.50839028169 
1729	 7217.35532419667 
1730	 7188.54964235234 
1731	 7158.42291864628 
1732	 7126.74903522856 
1733	 7099.68006465783 
1734	 7074.18227384508 
1735	 7048.90437716263 
1736	 7030.09363449909 
1737	 7005.07526686918 
1738	 6974.84733444999 
1739	 6948.16590444313 
1740	 6920.90638429076 
1741	 6893.85105197608 
1742	 6870.15410335263 
1743	 6841.96313444822 
1744	 6810.28115795833 
1745	 6780.22714608622 
1746	 6749.19355344143 
1747	 6718.80169549645 
1748	 6688.97830376515 
1749	 6659.15243247522 
1750	 6629.65417737704 
1751	 6597.75055729958 
1752	 6565.0146820987 
1753	 6533.4925534725 
1754	 6501.06439559119 
1755	 6469.9476273251 
1756	 6436.72775930107 
1757	 6402.59659002777 
1758	 6366.88928861599 
1759	 6331.66612231706 
1760	 6300.82350516916 
1761	 6269.44814002826 
1762	 6237.67461467401 
1763	 6205.35131908935 
1764	 6170.62787152488 
1765	 6140.24456001303 
1766	 6110.99299692586 
1767	 6079.57529561823 
1768	 6051.1424668755 
1769	 6021.95149403207 
1770	 5991.9246932861 
1771	 5970.89174092205 
1772	 5945.52574122556 
1773	 5917.87703185585 
1774	 5890.94330468208 
1775	 5862.64444603375 
1776	 5835.04517183467 
1777	 5808.63306818895 
1778	 5780.81529916213 
1779	 5751.09903641119 
1780	 5723.93502172431 
1781	 5696.43819646679 
1782	 5671.51022915084 
1783	 5650.5364532876 
1784	 5626.75024849404 
1785	 5602.76785147058 
1786	 5577.808726942 
1787	 5551.58340557776 
1788	 5526.37775896175 
1789	 5501.1797631779 
1790	 5478.12098438075 
1791	 5452.79697029222 
1792	 5428.39640360158 
1793	 5406.51011053785 
1794	 5382.72662519355 
1795	 5359.51852280616 
1796	 5336.82904282003 
1797	 5312.09835485055 
1798	 5289.32960609531 
1799	 5267.58666235906 
1800	 5245.81831174955 
1801	 8392.7306026418 
1802	 8470.07504180992 
1803	 8545.42550322894 
1804	 8613.47024257504 
1805	 8689.61671374044 
1806	 8772.22716732752 
1807	 8844.59168168034 
1808	 8906.04601788727 
1809	 8959.78022531289 
1810	 9015.50750995635 
1811	 9071.19745381801 
1812	 9126.31646774419 
1813	 9167.4725716869 
1814	 9212.88622980234 
1815	 9266.14145658617 
1816	 9311.17806143613 
1817	 9363.10519029284 
1818	 9411.26153761128 
1819	 9444.7031726822 
1820	 9483.85659912594 
1821	 9520.06203057519 
1822	 9549.73186952718 
1823	 9583.88199714601 
1824	 9634.9144509423 
1825	 9680.78002846394 
1826	 9725.65922196079 
1827	 9756.12728954761 
1828	 9772.23927584405 
1829	 9804.1002073595 
1830	 9826.95427516033 
1831	 9847.52661873141 
1832	 9861.26613551221 
1833	 9877.91117764624 
1834	 9894.63817788301 
1835	 9910.91194248235 
1836	 9926.85822697013 
1837	 9944.88798543316 
1838	 9958.74174373394 
1839	 9970.34346621498 
1840	 9975.33884514753 
1841	 9986.1903006557 
1842	 10007.8471331131 
1843	 10011.7849556193 
1844	 10002.4169809961 
1845	 9996.05341168279 
1846	 9992.60685117782 
1847	 9978.5774591681 
1848	 9959.31387127287 
1849	 9939.16417592503 
1850	 9915.25227714435 
1851	 9883.41744813543 
1852	 9844.38186112699 
1853	 9816.7433702751 
1854	 9782.07318898646 
1855	 9730.40758490267 
1856	 9668.27509807032 
1857	 9602.83727155899 
1858	 9531.30185206515 
1859	 9446.1094207637 
1860	 9350.06510433755 
1861	 9251.76564731623 
1862	 9145.30281835273 
1863	 9025.64683823976 
1864	 8902.52450773049 
1865	 8774.55871972454 
1866	 8628.21212924952 
1867	 8456.57019273824 
1868	 8293.34522922153 
1869	 8125.18161395334 
1870	 7951.36848003274 
1871	 7778.43494266176 
1872	 7594.64110213911 
1873	 7391.13898931318 
1874	 7189.32094777101 
1875	 6989.55660351348 
1876	 6778.96344770564 
1877	 6568.58069954972 
1878	 6364.58505755599 
1879	 6145.76654490858 
1880	 5911.66946776529 
1881	 5683.45635147668 
1882	 5452.11964331352 
1883	 5215.66074942265 
1884	 4982.98920738124 
1885	 4757.87094142668 
1886	 4535.16242564731 
1887	 4310.41779826543 
1888	 4098.8529591614 
1889	 3895.81314331958 
1890	 3696.52644322355 
1891	 3497.2823674167 
1892	 3316.96862625304 
1893	 3146.82286604342 
1894	 2986.77805563459 
1895	 2835.00990759352 
1896	 2693.88165049857 
1897	 2566.68025745061 
1898	 2451.07466297204 
1899	 2338.10616482419 
1900	 2235.50464733691 
1901	 2145.01774278078 
1902	 2062.22101475437 
1903	 1981.71089978308 
1904	 1909.71838490454 
1905	 1851.60890050499 
1906	 1799.08100532975 
1907	 1750.2609914794 
1908	 1705.54327330323 
1909	 1672.64311432636 
1910	 1642.74238701258 
1911	 1617.49531825185 
1912	 1588.03057743433 
1913	 1563.76710865679 
1914	 1542.50705498861 
1915	 1519.33518446418 
1916	 1492.14294880362 
1917	 1475.35609947954 
1918	 1471.34087701601 
1919	 1460.18659402716 
1920	 1448.7066378267 
1921	 1437.77679911437 
1922	 1421.32172931416 
1923	 1415.37335168535 
1924	 1424.29989303731 
1925	 1419.49213254543 
1926	 1408.02947359288 
1927	 1404.30858834681 
1928	 1402.02280157154 
1929	 1392.03231760338 
1930	 1386.91354172092 
1931	 1390.93307352444 
1932	 1394.36946607848 
1933	 1396.07222062779 
1934	 1396.34917578632 
1935	 1402.55074144036 
1936	 1406.48239779372 
1937	 1408.2475790291 
1938	 1398.03541095866 
1939	 1406.74528429085 
1940	 1430.25213150728 
1941	 1437.78252355563 
1942	 1443.24675255859 
1943	 1452.58507225515 
1944	 1448.23517892285 
1945	 1460.03734618447 
1946	 1494.30684559731 
1947	 1514.06867286752 
1948	 1531.21407129927 
1949	 1548.83145838388 
1950	 1563.12818933854 
1951	 1566.03360972234 
1952	 1581.39806607524 
1953	 1603.8509458978 
1954	 1622.16049761719 
1955	 1647.60655324229 
1956	 1662.9304315637 
1957	 1662.05996109237 
1958	 1677.32072890298 
1959	 1699.8613687963 
1960	 1718.13647873276 
1961	 1737.43199047477 
1962	 1766.42310340748 
1963	 1789.1448155378 
1964	 1805.64662893255 
1965	 1822.33332520947 
1966	 1841.66877404309 
1967	 1859.79377284417 
1968	 1868.29345373512 
1969	 1885.80376801277 
1970	 1909.03575984467 
1971	 1933.23726892569 
1972	 1959.93535574506 
1973	 1991.44541703193 
1974	 2018.57414919848 
1975	 2047.85412501482 
1976	 2074.78838923725 
1977	 2098.23118020411 
1978	 2123.24213623128 
1979	 2145.01457158241 
1980	 2172.34997232455 
1981	 2206.04253359556 
1982	 2234.91034235536 
1983	 2268.59659677289 
1984	 2297.63402956069 
1985	 2319.00184217385 
1986	 2326.14704483246 
1987	 2349.32083588811 
1988	 2371.90141581725 
1989	 2399.60048258713 
1990	 2441.27702029526 
1991	 2473.84807904963 
1992	 2503.10108993781 
1993	 2533.25395693663 
1994	 2567.23277363891 
1995	 2591.84942758085 
1996	 2614.87745179503 
1997	 2631.12498176754 
1998	 2658.90956457981 
1999	 2688.70667444453 
2000	 2717.29688265365 
2001	 2756.08465961306 
2002	 2785.67989998062 
2003	 2804.6566705777 
2004	 2828.64732554771 
2005	 2854.44465135399 
2006	 2879.3909773333 
2007	 2902.36280795252 
2008	 2929.15482263311 
2009	 2956.19317321595 
2010	 2986.61675610721 
2011	 3011.81135866266 
2012	 3031.31041248077 
2013	 3059.80214116887 
2014	 3089.27960756902 
2015	 3119.84623514761 
2016	 3164.87332574389 
2017	 3196.2994140441 
2018	 3212.9723509504 
2019	 3238.69548652552 
2020	 3260.74756133825 
2021	 3291.05389952985 
2022	 3319.673689808 
2023	 3357.95762264971 
2024	 3384.11330655894 
2025	 3401.4223228261 
2026	 3424.89873703585 
2027	 3450.29723164215 
2028	 3471.60545010087 
2029	 3487.40932337502 
2030	 3511.9759798083 
2031	 3541.87718638782 
2032	 3563.26253973304 
2033	 3587.21721574879 
2034	 3622.90898355182 
2035	 3651.35282386403 
2036	 3672.97525097212 
2037	 3698.17340856564 
2038	 3732.01798453074 
2039	 3754.30730300688 
2040	 3768.46058199856 
2041	 3782.64034653564 
2042	 3787.601188118 
2043	 3801.10834850552 
2044	 3810.93019516689 
2045	 3836.80215905907 
2046	 3862.95107217228 
2047	 3876.51185700077 
2048	 3893.51474188914 
2049	 3915.90632082619 
2050	 3935.81055579096 
2051	 3958.76162402952 
2052	 3980.2918000092 
2053	 3996.97889678396 
2054	 4019.98860800005 
2055	 4055.56781415923 
2056	 4076.44238894622 
2057	 4087.9479747151 
2058	 4103.4326289298 
2059	 4107.35869082277 
2060	 4121.34181880516 
2061	 4146.89750872992 
2062	 4177.45095831876 
2063	 4200.64762402448 
2064	 4222.55759509309 
2065	 4245.43271857681 
2066	 4266.27667893533 
2067	 4287.419122542 
2068	 4314.80782428561 
2069	 4334.64685553084 
2070	 4346.41883540737 
2071	 4360.11261279362 
2072	 4371.60870189817 
2073	 4382.23434232552 
2074	 4396.23777542881 
2075	 4423.92197817345 
2076	 4449.52886837751 
2077	 4470.62525298441 
2078	 4494.16580911331 
2079	 4522.31091399787 
2080	 4534.63720535019 
2081	 4537.12704616387 
2082	 4548.96293213973 
2083	 4549.82951967209 
2084	 4561.84733047239 
2085	 4590.55724965298 
2086	 4610.46416247545 
2087	 4631.85242286232 
2088	 4644.86539517817 
2089	 4650.87375958417 
2090	 4663.51158731078 
2091	 4673.44837483179 
2092	 4680.52001891209 
2093	 4698.58041897042 
2094	 4730.03903457565 
2095	 4747.6295257239 
2096	 4767.3943629759 
2097	 4781.87499715844 
2098	 4785.15375864839 
2099	 4792.15801425641 
2100	 4799.26793396189 
2101	 4807.21701339471 
2102	 4814.10697382467 
2103	 4821.2533171645 
2104	 4834.27647652685 
2105	 4845.80430083558 
2106	 4845.44891927081 
2107	 4848.73252743788 
2108	 4854.3952621422 
2109	 4853.66667087785 
2110	 4860.97776706763 
2111	 4881.60590883878 
2112	 4890.5504179725 
2113	 4893.67497580822 
2114	 4901.41797784268 
2115	 4909.78787663755 
2116	 4914.64535527135 
2117	 4916.00924874618 
2118	 4924.31056046948 
2119	 4937.72125315919 
2120	 4939.52262197007 
2121	 4946.0638788395 
2122	 4969.01396252535 
2123	 4975.48809806657 
2124	 4970.92432901823 
2125	 4975.93791032872 
2126	 4978.91240366551 
2127	 4984.84140245163 
2128	 5004.1422864618 
2129	 5010.29320772459 
2130	 5008.44630782396 
2131	 5008.68465160929 
2132	 5003.81787417147 
2133	 4998.00909844428 
2134	 4989.66125132219 
2135	 4989.24256196024 
2136	 4984.07146142079 
2137	 4972.1198338073 
2138	 4980.46321430749 
2139	 4994.06626734076 
2140	 4990.68881768158 
2141	 4984.02100557739 
2142	 4982.32508737813 
2143	 4971.21809282653 
2144	 4967.18700157992 
2145	 4978.48122624014 
2146	 4975.67197042014 
2147	 4959.16838228678 
2148	 4950.79033782706 
2149	 4943.39624629761 
2150	 4937.98202615101 
2151	 4940.08134829507 
2152	 4931.63560909618 
2153	 4926.59793234726 
2154	 4927.8165316561 
2155	 4920.772510599 
2156	 4914.94257555038 
2157	 4906.8792362777 
2158	 4889.08443167573 
2159	 4881.01928474358 
2160	 4877.50293451605 
2161	 4871.85396081058 
2162	 4872.71343011274 
2163	 4865.38824515452 
2164	 4851.43262437216 
2165	 4843.03427482847 
2166	 4832.33607719241 
2167	 4822.36220677396 
2168	 4817.78643424366 
2169	 4808.20479531483 
2170	 4795.50387671471 
2171	 4782.28047425094 
2172	 4769.46381018057 
2173	 4762.26201101213 
2174	 4751.66618887731 
2175	 4741.32698108242 
2176	 4728.90742665901 
2177	 4705.71387569604 
2178	 4686.98364981988 
2179	 4665.97310427448 
2180	 4649.44537783238 
2181	 4634.91808808104 
2182	 4619.09688831652 
2183	 4610.30967821474 
2184	 4591.64347198503 
2185	 4560.49348522315 
2186	 4540.9194277189 
2187	 4526.77713594105 
2188	 4504.49748835878 
2189	 4480.86068203952 
2190	 4464.7394663346 
2191	 4439.94709282351 
2192	 4412.14992825271 
2193	 4390.54527859385 
2194	 4367.79497346315 
2195	 4343.37091177934 
2196	 4318.27564003197 
2197	 4297.84306372221 
2198	 4282.02239753783 
2199	 4263.26105726547 
2200	 4249.69291687781 
2201	 4226.92277956406 
2202	 4192.65530973362 
2203	 4172.34728932559 
2204	 4157.7873488476 
2205	 4135.43608618731 
2206	 4119.13344644597 
2207	 4097.38212947838 
2208	 4058.80440680376 
2209	 4035.67455609347 
2210	 4022.46187860678 
2211	 4007.67862628134 
2212	 3990.57119054355 
2213	 3975.59702211871 
2214	 3953.79878246353 
2215	 3929.72380861227 
2216	 3910.20919731941 
2217	 3885.46632691383 
2218	 3867.32447456265 
2219	 3852.82499101078 
2220	 3834.54342693756 
2221	 3816.02235690117 
2222	 3799.71449599445 
2223	 3784.42641641523 
2224	 3765.04970173129 
2225	 3746.51258712715 
2226	 3728.25148841947 
2227	 3702.96680490919 
2228	 3679.63576297566 
2229	 3666.8792968433 
2230	 3644.34631105383 
2231	 3605.93256330597 
2232	 3584.04185359918 
2233	 3568.26332782299 
2234	 3547.84345556446 
2235	 3537.92377227633 
2236	 3525.14647237923 
2237	 3491.84161578391 
2238	 3460.01502878752 
2239	 3427.51078285515 
2240	 3397.72013654539 
2241	 3373.17446428691 
2242	 3356.86407083724 
2243	 3336.34580392901 
2244	 3317.94645727987 
2245	 3295.17901823347 
2246	 3272.35122421827 
2247	 3242.97197678574 
2248	 3206.9332048055 
2249	 3176.8478883573 
2250	 3144.32845491655 
2251	 3114.41463660889 
2252	 3089.0408807779 
2253	 3062.82358523697 
2254	 3036.55403536129 
2255	 3007.22184547064 
2256	 2979.86766567613 
2257	 2950.77676520391 
2258	 2914.92137257239 
2259	 2884.50858806661 
2260	 2859.74323197425 
2261	 2825.96106206798 
2262	 2801.95455118897 
2263	 2784.33076091066 
2264	 2761.61185845074 
2265	 2735.40528367327 
2266	 2691.85811710742 
2267	 2654.34761462591 
2268	 2630.00097803094 
2269	 2614.47115495328 
2270	 2586.9628162313 
2271	 2569.13171802168 
2272	 2538.60884467855 
2273	 2487.897937796 
2274	 2456.7415404024 
2275	 2434.10919815386 
2276	 2407.48460982941 
2277	 2381.75253116288 
2278	 2360.1925883249 
2279	 2344.23601204539 
2280	 2322.0341949605 
2281	 2302.62722076463 
2282	 2279.91871359447 
2283	 2245.89979450103 
2284	 2218.79355916671 
2285	 2198.57349641199 
2286	 2173.19177928704 
2287	 2147.4784079556 
2288	 2122.51625370848 
2289	 2093.50034476532 
2290	 2065.96657119906 
2291	 2041.42749044657 
2292	 2014.38194693686 
2293	 1982.24618428146 
2294	 1958.46259669018 
2295	 1937.52833677909 
2296	 1908.54241601199 
2297	 1882.53947879755 
2298	 1856.74408352085 
2299	 1828.18834035843 
2300	 1794.24499236091 
2301	 1768.08493853339 
2302	 1744.20424170657 
2303	 1720.90260360478 
2304	 1701.21667472947 
2305	 1678.4097277093 
2306	 1656.38010329026 
2307	 1631.98607265001 
2308	 1607.07527342095 
2309	 1579.06927403408 
2310	 1538.66910895722 
2311	 1520.08512444277 
2312	 1516.21353226041 
2313	 1498.13786233455 
2314	 1485.47472552836 
2315	 1473.21255768668 
2316	 1449.55197092598 
2317	 1431.86276037033 
2318	 1427.24278342154 
2319	 1413.54315618887 
2320	 1392.5027532571 
2321	 1371.89408714885 
2322	 1345.8292411874 
2323	 1328.49033004188 
2324	 1320.82410141509 
2325	 1300.36311178292 
2326	 1274.5547994486 
2327	 1256.1512125126 
2328	 1233.92375892107 
2329	 1208.40909652361 
2330	 1185.70813927907 
2331	 1168.90478475062 
2332	 1148.30227348709 
2333	 1128.72380129431 
2334	 1116.53630937234 
2335	 1110.33716874827 
2336	 1089.33779798195 
2337	 1063.33832891542 
2338	 1047.38403648974 
2339	 1036.14822191988 
2340	 1019.76414478927 
2341	 1008.97387190722 
2342	 987.575254581098 
2343	 952.230116189816 
2344	 937.182053713959 
2345	 931.782565192415 
2346	 913.809672140305 
2347	 901.168855878651 
2348	 881.918966314562 
2349	 843.703539072098 
2350	 828.721106708058 
2351	 830.057624184637 
2352	 818.833791505061 
2353	 810.009741462105 
2354	 798.995345294917 
2355	 777.17496385788 
2356	 769.054646523943 
2357	 779.962836518092 
2358	 763.499660888226 
2359	 731.108082033565 
2360	 716.424345016407 
2361	 693.364658636318 
2362	 677.225785317273 
2363	 683.316501859168 
2364	 673.455228812692 
2365	 646.222345292191 
2366	 633.409320898952 
2367	 629.04673220266 
2368	 619.561347261614 
2369	 613.351315901253 
2370	 603.35035777117 
2371	 589.481007037312 
2372	 575.393507314774 
2373	 557.484540467829 
2374	 544.952918324917 
2375	 533.541747103437 
2376	 522.962087044659 
2377	 515.668305033482 
2378	 509.729622128909 
2379	 509.357973996519 
2380	 499.671873591203 
2381	 483.723539087499 
2382	 473.942759820781 
2383	 460.79026047175 
2384	 448.520699627953 
2385	 444.232109442844 
2386	 435.683138438479 
2387	 419.383347233713 
2388	 408.134445785979 
2389	 403.560343933265 
2390	 392.922036677915 
2391	 374.375717482186 
2392	 365.760349670219 
2393	 366.115245978314 
2394	 355.862108042318 
2395	 338.6571108653 
2396	 333.980129199323 
2397	 334.536718302713 
2398	 325.11550792674 
2399	 317.07135649905 
2400	 315.576024015023 
2401	 310.336067243363 
2402	 300.255317986955 
2403	 296.000012981017 
2404	 292.712627597569 
2405	 283.483220265135 
2406	 270.87392932863 
2407	 259.271060717032 
2408	 251.915874945443 
2409	 236.593986531895 
2410	 227.26559654317 
2411	 235.246446690645 
2412	 232.376243092054 
2413	 216.503487739801 
2414	 211.73132519041 
2415	 215.971163148147 
2416	 209.080661483635 
2417	 199.829384830512 
2418	 194.018923605886 
2419	 187.032396017136 
2420	 178.34312630116 
2421	 180.876852323592 
2422	 186.265657381554 
2423	 180.713440721779 
2424	 180.50410816589 
2425	 184.064270037737 
2426	 183.519107122302 
2427	 180.839390114974 
2428	 166.518805089522 
2429	 152.044066417729 
2430	 143.160462617844 
2431	 143.566114237643 
2432	 153.698876575694 
2433	 145.167980308953 
2434	 136.830229113256 
2435	 138.485186968656 
2436	 122.697177404611 
2437	 116.774053998311 
2438	 127.019452198277 
2439	 117.826123179876 
2440	 110.809457921395 
2441	 123.368373099136 
2442	 127.061161473392 
2443	 118.78752970503 
2444	 114.664433852511 
2445	 114.02953221644 
2446	 100.826269311988 
2447	 96.2148775505593 
2448	 104.055987207396 
2449	 92.6667223581309 
2450	 86.3413823049513 
2451	 86.9072068869619 
2452	 78.0471397055568 
2453	 77.3631842378681 
2454	 81.4375900084795 
2455	 81.8443114289696 
2456	 80.0412336092382 
2457	 72.9944359053637 
2458	 70.9800074333007 
2459	 73.5754250996913 
2460	 70.5086739423731 
2461	 64.433365564667 
2462	 63.2540252586958 
2463	 62.0878632955721 
2464	 59.441685881678 
2465	 59.8136325474107 
2466	 60.0108706117626 
2467	 60.18472901419 
2468	 55.5807543511398 
2469	 43.5695258695973 
2470	 43.3797658402646 
2471	 47.5110222405887 
2472	 47.0138222537932 
2473	 55.8681175454159 
2474	 62.112028155649 
2475	 64.4378105116686 
2476	 57.9303689996327 
2477	 45.4767444060757 
2478	 39.2498141831915 
2479	 25.3671412176857 
2480	 17.7735513235037 
2481	 19.8821650993045 
2482	 22.4353453063487 
2483	 24.2527959070781 
2484	 23.8784608260345 
2485	 29.5103740170757 
2486	 32.3140057365226 
2487	 29.0104416755459 
2488	 27.3220130094299 
2489	 30.5870822632186 
2490	 26.8305548738864 
2491	 11.3676081088315 
2492	 11.5390883254922 
2493	 21.3859899345569 
2494	 21.1833774635469 
2495	 23.0800179516394 
2496	 26.7671791106715 
2497	 23.4031456479049 
2498	 22.2287722954257 
2499	 30.6024658961413 
2500	 30.7362720505608 
