Data from Samples_AbsoluteIrradiance_00043.txt Node
Date: Tue Nov 05 13:31:11 MST 2019
User: wkolb
Spectrometer: FLMS05493
Trigger mode: 0
Integration Time (sec): 1.000000E-3
Scans to average: 20
Electric dark correction enabled: true
Nonlinearity correction enabled: true
Boxcar width: 0
XAxis mode: Wavelengths
Number of Pixels in Spectrum: 2048
>>>>>Begin Spectral Data<<<<<
340.355	0
340.733	0
341.111	0
341.488	-0
341.866	0
342.244	0
342.621	-0
342.999	0
343.376	0
343.754	0
344.131	0
344.509	-0
344.886	-0
345.264	-0
345.641	0
346.018	-0
346.396	-0
346.773	-0
347.15	0
347.527	-0
347.904	0
348.281	-0
348.658	0
349.035	0
349.412	0
349.789	0
350.166	0.14943916
350.543	0.16044467
350.919	0.15468067
351.296	0.146898
351.673	0.14344241
352.05	0.14527891
352.426	0.15933342
352.803	0.15901742
353.179	0.17174693
353.556	0.22278603
353.932	0.20342936
354.309	0.21513201
354.685	0.19786979
355.061	0.2006811
355.438	0.22102124
355.814	0.20773719
356.19	0.21610279
356.566	0.20786888
356.942	0.18667757
357.319	0.18764565
357.695	0.22068738
358.071	0.19541948
358.447	0.20341064
358.823	0.21713848
359.199	0.21088753
359.574	0.27130417
359.95	0.24328476
360.326	0.2914448
360.702	0.27020699
361.077	0.26827422
361.453	0.24994564
361.829	0.25510368
362.204	0.321016
362.58	0.28235646
362.955	0.29925674
363.331	0.33359965
363.706	0.31814
364.082	0.35745671
364.457	0.37006177
364.832	0.35737116
365.208	0.36041883
365.583	0.43745723
365.958	0.44469861
366.333	0.42205439
366.708	0.43877532
367.083	0.42199445
367.459	0.43480319
367.834	0.3927204
368.208	0.45514506
368.583	0.44551631
368.958	0.39636172
369.333	0.4608049
369.708	0.480603
370.083	0.47884437
370.457	0.43176957
370.832	0.47014491
371.207	0.44733433
371.581	0.4712839
371.956	0.47156315
372.33	0.44736494
372.705	0.42149264
373.079	0.46334129
373.454	0.43611868
373.828	0.41986968
374.202	0.46411157
374.577	0.45877881
374.951	0.45860217
375.325	0.50949131
375.699	0.48718459
376.073	0.56269681
376.448	0.531302
376.822	0.60367381
377.196	0.59766694
377.57	0.64777628
377.943	0.65238023
378.317	0.71102825
378.691	0.60537996
379.065	0.65450953
379.439	0.58049982
379.812	0.5926249
380.186	0.64620805
380.56	0.64147585
380.933	0.62940581
381.307	0.60966408
381.68	0.54394301
382.054	0.5291416
382.427	0.46583093
382.801	0.44906636
383.174	0.46541686
383.548	0.49947438
383.921	0.50874096
384.294	0.55200403
384.667	0.60889013
385.04	0.64136625
385.414	0.61528802
385.787	0.64034321
386.16	0.63722463
386.533	0.69279761
386.906	0.64076919
387.279	0.6550071
387.651	0.64405977
388.024	0.70750086
388.397	0.67962238
388.77	0.75491874
389.143	0.755402
389.515	0.85240425
389.888	0.83019132
390.26	0.88669241
390.633	0.86468522
391.006	0.85718922
391.378	0.88495804
391.751	0.80834499
392.123	0.72336638
392.495	0.66808978
392.868	0.59069747
393.24	0.55889885
393.612	0.58957868
393.984	0.65422197
394.356	0.77495548
394.729	0.86486348
395.101	0.84906536
395.473	0.8706691
395.845	0.80988257
396.217	0.77135584
396.589	0.69476035
396.96	0.70615551
397.332	0.81102765
397.704	0.9890881
398.076	1.09083054
398.448	1.19133107
398.819	1.26656923
399.191	1.28615741
399.562	1.34866115
399.934	1.32090592
400.306	1.37644967
400.677	1.37315204
401.048	1.38069859
401.42	1.41126617
401.791	1.38906704
402.163	1.42437144
402.534	1.44291424
402.905	1.41846189
403.276	1.44453838
403.647	1.4313456
404.018	1.41848928
404.39	1.42028269
404.761	1.38421934
405.132	1.40136386
405.503	1.39423756
405.873	1.39399776
406.244	1.38897964
406.615	1.4047338
406.986	1.43167681
407.357	1.45829423
407.727	1.50557474
408.098	1.492542
408.469	1.51276967
408.839	1.53336261
409.21	1.53244435
409.58	1.48463496
409.951	1.44565961
410.321	1.45919433
410.692	1.52464082
411.062	1.60351479
411.432	1.64199155
411.802	1.65863414
412.173	1.66368414
412.543	1.66570627
412.913	1.63788336
413.283	1.66043256
413.653	1.67862272
414.023	1.67099357
414.393	1.66674608
414.763	1.70053417
415.133	1.6576969
415.503	1.67133916
415.873	1.70763055
416.242	1.72766117
416.612	1.71553171
416.982	1.68817927
417.351	1.65406229
417.721	1.66097481
418.091	1.69403464
418.46	1.66722776
418.83	1.69115409
419.199	1.69379067
419.568	1.66997853
419.938	1.6989972
420.307	1.74329301
420.676	1.78487469
421.046	1.77995957
421.415	1.77011936
421.784	1.76728421
422.153	1.7330087
422.522	1.65799141
422.891	1.67330356
423.26	1.69811348
423.629	1.71192307
423.998	1.75609382
424.367	1.77307891
424.736	1.74086042
425.105	1.74263204
425.473	1.71286038
425.842	1.73843377
426.211	1.75009458
426.579	1.7170747
426.948	1.70403424
427.316	1.66190614
427.685	1.68166118
428.053	1.68608099
428.422	1.66648794
428.79	1.61856252
429.159	1.59145052
429.527	1.50557629
429.895	1.45174697
430.263	1.4285641
430.632	1.43185125
431	1.51335267
431.368	1.70036081
431.736	1.80513247
432.104	1.84601712
432.472	1.86240536
432.84	1.83224391
433.208	1.86668807
433.575	1.84139998
433.943	1.81123736
434.311	1.8514634
434.679	1.90653567
435.046	1.95299164
435.414	1.96855404
435.782	2.0417586
436.149	2.07963125
436.517	2.07013437
436.884	2.03495924
437.252	1.99014035
437.619	1.97007616
437.986	1.93386166
438.354	1.91353777
438.721	1.91361437
439.088	1.98650279
439.455	2.00429113
439.823	2.04469035
440.19	2.05201733
440.557	2.05336989
440.924	2.11355786
441.291	2.16390581
441.658	2.15935731
442.025	2.22184235
442.391	2.23113928
442.758	2.23889797
443.125	2.25285324
443.492	2.21213957
443.858	2.26018604
444.225	2.24894175
444.592	2.26783614
444.958	2.23192255
445.325	2.20964321
445.691	2.19759965
446.058	2.21503045
446.424	2.26272586
446.79	2.30868351
447.157	2.3519655
447.523	2.4165956
447.889	2.38834241
448.255	2.38963768
448.622	2.42140593
448.988	2.43787018
449.354	2.44991025
449.72	2.47158004
450.086	2.54471662
450.452	2.54500668
450.818	2.5448594
451.184	2.56412752
451.549	2.54580996
451.915	2.46924123
452.281	2.42145346
452.647	2.40513576
453.012	2.39274676
453.378	2.37968009
453.743	2.44509195
454.109	2.44784497
454.474	2.47102113
454.84	2.46362129
455.205	2.49555019
455.571	2.50734927
455.936	2.5481942
456.301	2.57317608
456.666	2.57973843
457.032	2.59529324
457.397	2.56744497
457.762	2.56936931
458.127	2.52200316
458.492	2.53675471
458.857	2.54594554
459.222	2.56577656
459.587	2.55652375
459.952	2.57620161
460.317	2.59629505
460.681	2.62456348
461.046	2.65663135
461.411	2.65719079
461.775	2.67570388
462.14	2.67750815
462.505	2.66425518
462.869	2.68618208
463.234	2.64954825
463.598	2.64927409
463.962	2.65237279
464.327	2.59069948
464.691	2.60458427
465.055	2.61353101
465.42	2.6374116
465.784	2.63755153
466.148	2.61162589
466.512	2.60872963
466.876	2.57595419
467.24	2.60694838
467.604	2.63559884
467.968	2.63688023
468.332	2.65818805
468.696	2.66164888
469.06	2.64900861
469.423	2.64718179
469.787	2.60877029
470.151	2.58050524
470.515	2.61608195
470.878	2.64521489
471.242	2.66576497
471.605	2.70882558
471.969	2.74648706
472.332	2.74340235
472.696	2.72736887
473.059	2.71015718
473.422	2.71633761
473.785	2.76021807
474.149	2.77428773
474.512	2.80120481
474.875	2.77730049
475.238	2.74743551
475.601	2.74247968
475.964	2.74087332
476.327	2.7415617
476.69	2.74498234
477.053	2.794124
477.416	2.82304982
477.779	2.84233681
478.141	2.82820745
478.504	2.83442422
478.867	2.82244201
479.229	2.85205935
479.592	2.87072075
479.955	2.88439865
480.317	2.85901667
480.68	2.87907938
481.042	2.90224813
481.404	2.89888039
481.767	2.89911325
482.129	2.89110462
482.491	2.87910514
482.854	2.87235151
483.216	2.84836005
483.578	2.83229116
483.94	2.81980996
484.302	2.77378452
484.664	2.73741593
485.026	2.66507897
485.388	2.56929931
485.75	2.45574099
486.112	2.43654251
486.473	2.46994566
486.835	2.55641627
487.197	2.61855834
487.559	2.69253972
487.92	2.71226592
488.282	2.74886626
488.643	2.75554092
489.005	2.77654336
489.366	2.82891148
489.728	2.86287518
490.089	2.86986794
490.45	2.85469917
490.812	2.83555247
491.173	2.82205006
491.534	2.76586878
491.895	2.74711064
492.256	2.75846433
492.617	2.80838478
492.978	2.83768683
493.339	2.85158253
493.7	2.85056892
494.061	2.87820016
494.422	2.8941251
494.783	2.9201362
495.144	2.90207444
495.504	2.89783642
495.865	2.8920695
496.226	2.902636
496.586	2.91108506
496.947	2.91769612
497.308	2.89615148
497.668	2.87165031
498.028	2.84236036
498.389	2.82661552
498.749	2.83849646
499.109	2.85373921
499.47	2.84918728
499.83	2.8358021
500.19	2.78982248
500.55	2.76717707
500.91	2.74383108
501.27	2.74532746
501.63	2.73677772
501.99	2.76194047
502.35	2.8013965
502.71	2.82398555
503.07	2.82770797
503.43	2.80070291
503.79	2.80027598
504.149	2.81378288
504.509	2.82689443
504.869	2.88155896
505.228	2.8910413
505.588	2.9281951
505.947	2.93351552
506.307	2.91135192
506.666	2.90353985
507.025	2.87345344
507.385	2.84832322
507.744	2.84634808
508.103	2.86384426
508.462	2.88414464
508.822	2.91908114
509.181	2.9116702
509.54	2.92649127
509.899	2.89631248
510.258	2.91550409
510.617	2.93523232
510.976	2.94448078
511.335	2.94990591
511.693	2.95358108
512.052	2.92758566
512.411	2.89833895
512.77	2.88559468
513.128	2.87445917
513.487	2.85871264
513.845	2.84621491
514.204	2.85000045
514.562	2.85538612
514.921	2.87472056
515.279	2.85664305
515.637	2.85183826
515.996	2.76922829
516.354	2.67146533
516.712	2.58855115
517.07	2.58160023
517.428	2.62678339
517.787	2.63375387
518.145	2.64812356
518.503	2.6877221
518.861	2.75153997
519.218	2.80997925
519.576	2.85366645
519.934	2.87672117
520.292	2.88373205
520.65	2.88666716
521.007	2.91459692
521.365	2.92836671
521.723	2.92971933
522.08	2.90932728
522.438	2.91269761
522.795	2.88474816
523.153	2.90988995
523.51	2.95931306
523.867	2.99925179
524.225	3.00948413
524.582	3.01426486
524.939	2.99526133
525.296	2.98594969
525.653	2.92693221
526.011	2.87258844
526.368	2.79954827
526.725	2.7844096
527.082	2.7995293
527.438	2.84361325
527.795	2.90347566
528.152	2.9688735
528.509	3.00404378
528.866	3.05113208
529.222	3.05206167
529.579	3.03406368
529.936	3.05168603
530.292	3.05257496
530.649	3.08462136
531.005	3.08216739
531.362	3.07657311
531.718	3.04153478
532.074	2.99667871
532.431	2.95588123
532.787	2.94037896
533.143	2.97401652
533.499	2.98357433
533.855	3.0079603
534.212	3.02452866
534.568	3.05932107
534.924	3.08824394
535.28	3.08980256
535.636	3.11729806
535.991	3.08679405
536.347	3.06227604
536.703	3.02967718
537.059	3.03801598
537.414	3.05136646
537.77	3.06629026
538.126	3.06363695
538.481	3.07111305
538.837	3.04995472
539.192	3.01469871
539.548	2.98436935
539.903	2.96745315
540.258	2.94387696
540.614	2.95238299
540.969	2.97850536
541.324	3.00342055
541.679	3.00659111
542.035	3.03003502
542.39	3.03401754
542.745	3.02748744
543.1	3.03421619
543.455	3.05872776
543.81	3.07345253
544.164	3.08280652
544.519	3.08711937
544.874	3.08298641
545.229	3.09613666
545.584	3.0913719
545.938	3.08558744
546.293	3.08451363
546.647	3.08007804
547.002	3.06827714
547.356	3.05497034
547.711	3.03868284
548.065	3.06557843
548.42	3.07626992
548.774	3.10187701
549.128	3.10369793
549.482	3.11128893
549.836	3.09809878
550.191	3.10433454
550.545	3.09592646
550.899	3.09431592
551.253	3.11590952
551.607	3.12409898
551.961	3.11909655
552.314	3.11037325
552.668	3.09636829
553.022	3.10232351
553.376	3.11663198
553.73	3.1255021
554.083	3.13780062
554.437	3.15237195
554.79	3.13933166
555.144	3.15267272
555.497	3.14097255
555.851	3.13787483
556.204	3.11631122
556.557	3.08990321
556.911	3.07937367
557.264	3.07428901
557.617	3.08283392
557.97	3.07741038
558.323	3.04604437
558.677	3.03205096
559.03	3.01510425
559.383	3.02155627
559.736	3.0481229
560.088	3.06418196
560.441	3.09296414
560.794	3.12426989
561.147	3.10207725
561.5	3.08813118
561.852	3.09528998
562.205	3.09955045
562.557	3.12065779
562.91	3.13110087
563.263	3.12091397
563.615	3.11604164
563.967	3.11542682
564.32	3.11693976
564.672	3.11370937
565.024	3.10638894
565.377	3.07242142
565.729	3.06632385
566.081	3.06486096
566.433	3.08747805
566.785	3.1104148
567.137	3.12340992
567.489	3.11536369
567.841	3.11079311
568.193	3.09048253
568.545	3.06992663
568.897	3.0746764
569.248	3.08280358
569.6	3.07467734
569.952	3.06553897
570.303	3.04685953
570.655	3.01468635
571.006	3.02398459
571.358	3.04470906
571.709	3.07787626
572.061	3.11928579
572.412	3.13922861
572.763	3.14683862
573.115	3.14503909
573.466	3.15139036
573.817	3.1542772
574.168	3.15079215
574.519	3.14467815
574.87	3.11330802
575.221	3.08979664
575.572	3.08216019
575.923	3.0928448
576.274	3.11650779
576.625	3.12142828
576.976	3.12299926
577.326	3.11805531
577.677	3.09812685
578.028	3.08028694
578.378	3.07698445
578.729	3.08015052
579.079	3.09954987
579.43	3.12493061
579.78	3.13479134
580.131	3.14519524
580.481	3.15560391
580.831	3.16405647
581.182	3.17821082
581.532	3.19090014
581.882	3.20611935
582.232	3.22087063
582.582	3.21644251
582.932	3.23253566
583.282	3.23171901
583.632	3.2334321
583.982	3.22772827
584.332	3.21831181
584.682	3.20599925
585.031	3.19416531
585.381	3.15140688
585.731	3.15296492
586.08	3.15152376
586.43	3.16598436
586.779	3.17176472
587.129	3.16992374
587.478	3.15236624
587.828	3.12311972
588.177	3.04953236
588.526	2.94305466
588.876	2.86199302
589.225	2.82008558
589.574	2.83103404
589.923	2.87884712
590.272	2.95209628
590.621	3.00498115
590.97	3.02492253
591.319	3.02941902
591.668	3.03961202
592.017	3.03988812
592.366	3.05351797
592.715	3.06288089
593.063	3.08628843
593.412	3.09096606
593.761	3.0806259
594.109	3.05109056
594.458	3.04259642
594.806	3.04039898
595.155	3.06267926
595.503	3.08167834
595.851	3.1088808
596.2	3.11974975
596.548	3.11600028
596.896	3.1235323
597.244	3.12628081
597.593	3.12635881
597.941	3.11501094
598.289	3.11558904
598.637	3.11857648
598.985	3.12120194
599.333	3.14684732
599.681	3.14074122
600.028	3.13864792
600.376	3.14273552
600.724	3.14029103
601.072	3.13372937
601.419	3.12557375
601.767	3.10809564
602.114	3.11450053
602.462	3.13547168
602.809	3.16635636
603.157	3.1818045
603.504	3.20544113
603.851	3.22153534
604.199	3.21169381
604.546	3.21984711
604.893	3.22169903
605.24	3.21265417
605.587	3.19991419
605.935	3.18529051
606.282	3.19289422
606.629	3.20627944
606.975	3.21710704
607.322	3.19909656
607.669	3.18849296
608.016	3.19166998
608.363	3.17579992
608.709	3.1668824
609.056	3.17301115
609.403	3.16558262
609.749	3.15605051
610.096	3.13949077
610.442	3.12851461
610.789	3.16358992
611.135	3.16203428
611.481	3.1558377
611.828	3.14998799
612.174	3.14759217
612.52	3.142292
612.866	3.13969534
613.212	3.12370712
613.558	3.10059333
613.904	3.10573971
614.25	3.10652747
614.596	3.12959807
614.942	3.13303055
615.288	3.12896743
615.634	3.0901786
615.98	3.06094292
616.325	3.03825228
616.671	3.04275768
617.017	3.07348075
617.362	3.08713978
617.708	3.11850133
618.053	3.13503845
618.399	3.13606355
618.744	3.13922959
619.089	3.15579728
619.435	3.15761511
619.78	3.16692873
620.125	3.179357
620.47	3.18783308
620.815	3.1847083
621.16	3.16067131
621.505	3.14751918
621.85	3.13579874
622.195	3.14583492
622.54	3.12927625
622.885	3.11768802
623.23	3.12974774
623.575	3.12614023
623.919	3.1039049
624.264	3.09164358
624.609	3.09067117
624.953	3.06873692
625.298	3.07011405
625.642	3.0666537
625.987	3.07998925
626.331	3.0951671
626.675	3.10562893
627.02	3.09384035
627.364	3.07536997
627.708	3.02504722
628.052	3.02700682
628.396	3.04310167
628.74	3.05014144
629.084	3.04033976
629.428	3.022031
629.772	3.02756599
630.116	3.04334469
630.46	3.04440184
630.804	3.05219796
631.148	3.04177667
631.491	3.0408159
631.835	3.03797442
632.179	3.05756376
632.522	3.07679405
632.866	3.09754697
633.209	3.09510898
633.553	3.08633797
633.896	3.08676508
634.239	3.09073451
634.583	3.10810876
634.926	3.11201497
635.269	3.1226428
635.612	3.10845376
635.955	3.10235047
636.298	3.10821777
636.641	3.12308916
636.984	3.14336573
637.327	3.16440193
637.67	3.16999908
638.013	3.1584376
638.356	3.16652658
638.699	3.16798312
639.041	3.16151303
639.384	3.14706159
639.726	3.13947543
640.069	3.1296948
640.412	3.13143637
640.754	3.11604543
641.096	3.10904159
641.439	3.10839445
641.781	3.11468574
642.123	3.12486595
642.466	3.14959546
642.808	3.13493605
643.15	3.1422823
643.492	3.128015
643.834	3.14155966
644.176	3.1430421
644.518	3.14119557
644.86	3.13094148
645.202	3.11070505
645.544	3.10431646
645.885	3.08856133
646.227	3.07229854
646.569	3.05019186
646.91	3.03656499
647.252	3.02367256
647.594	3.01136794
647.935	3.02155685
648.277	3.01533096
648.618	3.00367611
648.959	2.9774447
649.301	2.9583428
649.642	2.96235817
649.983	2.99945294
650.324	3.04365638
650.665	3.065262
651.007	3.06022125
651.348	3.04753693
651.689	3.02365649
652.029	3.04399169
652.37	3.06823484
652.711	3.08103124
653.052	3.08351044
653.393	3.08129448
653.734	3.0984755
654.074	3.08120872
654.415	3.05766307
654.755	3.0233464
655.096	2.97072184
655.436	2.87601561
655.777	2.7556797
656.117	2.66059618
656.458	2.6404895
656.798	2.71923835
657.138	2.79115591
657.478	2.85497085
657.818	2.95294002
658.159	3.00431109
658.499	3.04386363
658.839	3.06655861
659.179	3.06962973
659.519	3.08179412
659.858	3.09968077
660.198	3.11058537
660.538	3.11339018
660.878	3.13281819
661.217	3.15332071
661.557	3.16140038
661.897	3.16401825
662.236	3.16665948
662.576	3.15943235
662.915	3.15745502
663.255	3.1494482
663.594	3.16409328
663.933	3.13234311
664.273	3.13431616
664.612	3.15025576
664.951	3.14697813
665.29	3.15015388
665.629	3.16607835
665.968	3.14381426
666.307	3.15643344
666.646	3.14283262
666.985	3.1627082
667.324	3.14628136
667.663	3.14856848
668.002	3.15642766
668.34	3.16027077
668.679	3.15622268
669.018	3.16126539
669.356	3.14704362
669.695	3.16836885
670.033	3.15601908
670.372	3.15564682
670.71	3.13645575
671.048	3.13661246
671.387	3.11791503
671.725	3.10133831
672.063	3.10515347
672.401	3.11915759
672.739	3.12833109
673.077	3.14273232
673.415	3.14349637
673.753	3.13517055
674.091	3.13927949
674.429	3.13280414
674.767	3.13835902
675.105	3.12057981
675.443	3.13176112
675.78	3.13337615
676.118	3.14370694
676.456	3.13440087
676.793	3.13344035
677.131	3.13245822
677.468	3.12941255
677.805	3.14497027
678.143	3.12774777
678.48	3.11438888
678.817	3.12761946
679.155	3.13068646
679.492	3.13302816
679.829	3.13025356
680.166	3.12801019
680.503	3.12355946
680.84	3.11216423
681.177	3.12806341
681.514	3.12153984
681.851	3.12651314
682.187	3.12795368
682.524	3.11338695
682.861	3.1085632
683.198	3.11718807
683.534	3.08251935
683.871	3.06442172
684.207	3.06245718
684.544	3.06248137
684.88	3.07696386
685.217	3.07011653
685.553	3.06719473
685.889	3.02339705
686.225	2.91381083
686.562	2.73628219
686.898	2.53322188
687.234	2.43651353
687.57	2.44050812
687.906	2.49500362
688.242	2.55748693
688.578	2.58007272
688.914	2.59466278
689.249	2.62242275
689.585	2.62228588
689.921	2.65899362
690.257	2.68186492
690.592	2.71942912
690.928	2.75100444
691.263	2.77838492
691.599	2.79375001
691.934	2.81308335
692.27	2.82003571
692.605	2.81084261
692.94	2.80222733
693.275	2.77189544
693.611	2.75629631
693.946	2.73906443
694.281	2.73271144
694.616	2.73299042
694.951	2.76148955
695.286	2.77296387
695.621	2.79085547
695.956	2.8243701
696.291	2.86595524
696.625	2.89656307
696.96	2.9436361
697.295	2.93081351
697.629	2.91913344
697.964	2.92173371
698.298	2.89714881
698.633	2.88012669
698.967	2.85248657
699.302	2.83749643
699.636	2.82147412
699.97	2.81376627
700.305	2.79075379
700.639	2.79061946
700.973	2.77807008
701.307	2.78357455
701.641	2.77966129
701.975	2.76126764
702.309	2.75928171
702.643	2.78181754
702.977	2.83199084
703.311	2.84735564
703.645	2.84657017
703.978	2.87119995
704.312	2.89430219
704.646	2.89026408
704.979	2.88130352
705.313	2.88637347
705.646	2.89221213
705.98	2.90062377
706.313	2.89529983
706.646	2.89033432
706.98	2.90542191
707.313	2.91773705
707.646	2.92866854
707.979	2.93023419
708.313	2.91411284
708.646	2.9199982
708.979	2.90277017
709.312	2.90432753
709.645	2.92305695
709.977	2.91793528
710.31	2.9294015
710.643	2.91648955
710.976	2.93762692
711.308	2.91814923
711.641	2.91077778
711.974	2.92488805
712.306	2.91547571
712.639	2.91430443
712.971	2.89879362
713.304	2.8927169
713.636	2.90193478
713.968	2.8945987
714.3	2.87776673
714.633	2.85383155
714.965	2.83843576
715.297	2.82549883
715.629	2.79989188
715.961	2.74764616
716.293	2.68199136
716.625	2.55096609
716.957	2.42417194
717.289	2.31919449
717.62	2.26167608
717.952	2.19105096
718.284	2.1090465
718.615	2.0806782
718.947	2.04407341
719.279	2.03142555
719.61	2.02494819
719.941	2.02461082
720.273	2.06471457
720.604	2.14163838
720.935	2.25515805
721.267	2.36597466
721.598	2.46544548
721.929	2.51086497
722.26	2.54882983
722.591	2.53027032
722.922	2.45484158
723.253	2.39385111
723.584	2.32817167
723.915	2.28082653
724.246	2.25505629
724.577	2.2299025
724.907	2.21940188
725.238	2.22419489
725.569	2.23496526
725.899	2.23134695
726.23	2.25659272
726.56	2.2626191
726.891	2.28586101
727.221	2.2479953
727.551	2.24109555
727.882	2.24440178
728.212	2.28128334
728.542	2.27638444
728.872	2.23865578
729.202	2.24457734
729.532	2.2805988
729.862	2.29636613
730.192	2.3013686
730.522	2.29212379
730.852	2.29049541
731.182	2.30947534
731.512	2.35072236
731.841	2.39337491
732.171	2.45476163
732.501	2.51214155
732.83	2.52818503
733.16	2.55229602
733.489	2.59971171
733.819	2.64934463
734.148	2.64890056
734.477	2.64922498
734.807	2.66029038
735.136	2.64627164
735.465	2.65189841
735.794	2.63558346
736.123	2.62730413
736.452	2.62516527
736.781	2.63707389
737.11	2.64776385
737.439	2.68648398
737.768	2.68559102
738.097	2.68124809
738.426	2.67516965
738.754	2.66959299
739.083	2.65065754
739.412	2.66221735
739.74	2.68356895
740.069	2.70617967
740.397	2.69503382
740.725	2.70554982
741.054	2.69498263
741.382	2.6912681
741.71	2.70545376
742.039	2.7138075
742.367	2.71277324
742.695	2.73200474
743.023	2.7559445
743.351	2.77352926
743.679	2.76171325
744.007	2.77527961
744.335	2.7625457
744.663	2.76616472
744.99	2.77303099
745.318	2.78062054
745.646	2.79398991
745.973	2.7785588
746.301	2.77941415
746.629	2.79747323
746.956	2.79119742
747.284	2.79393833
747.611	2.77193115
747.938	2.78036017
748.266	2.79784686
748.593	2.77399991
748.92	2.76069274
749.247	2.74631435
749.574	2.75137216
749.901	2.75636436
750.228	2.75580901
750.555	2.74731625
750.882	2.73827852
751.209	2.74016108
751.536	2.73394716
751.863	2.74039223
752.189	2.74405551
752.516	2.72347602
752.843	2.73924729
753.169	2.73845297
753.496	2.73422923
753.822	2.75669428
754.149	2.74590893
754.475	2.75856138
754.801	2.75360199
755.128	2.75505729
755.454	2.72323953
755.78	2.71632921
756.106	2.74040384
756.432	2.7211979
756.758	2.71871771
757.084	2.72585423
757.41	2.72223123
757.736	2.69980061
758.062	2.69638612
758.388	2.65120059
758.713	2.58302434
759.039	2.37850563
759.365	2.05685264
759.69	1.65536486
760.016	1.33495033
760.341	1.05441852
760.667	0.88896974
760.992	0.85778935
761.317	0.94614177
761.643	1.08428811
761.968	1.19292958
762.293	1.21517986
762.618	1.20568636
762.943	1.19517065
763.269	1.20779959
763.594	1.23458631
763.918	1.2621745
764.243	1.34141448
764.568	1.42755778
764.893	1.52342184
765.218	1.63515336
765.543	1.73215578
765.867	1.84172874
766.192	1.94022219
766.516	2.04394771
766.841	2.13864099
767.165	2.235745
767.49	2.31842635
767.814	2.39240793
768.138	2.43494213
768.463	2.48465589
768.787	2.506157
769.111	2.52900172
769.435	2.54936267
769.759	2.57968179
770.083	2.57250177
770.407	2.59928113
770.731	2.6183139
771.055	2.61345552
771.379	2.62351616
771.703	2.60891375
772.026	2.62241502
772.35	2.63048381
772.674	2.634892
772.997	2.63489377
773.321	2.65845588
773.644	2.64769437
773.968	2.64365527
774.291	2.63235821
774.614	2.63150309
774.938	2.61599223
775.261	2.63958885
775.584	2.62703605
775.907	2.64524324
776.23	2.65335648
776.553	2.65603392
776.876	2.67100742
777.199	2.66655852
777.522	2.61579969
777.845	2.63384424
778.168	2.64238129
778.491	2.64785406
778.813	2.64034741
779.136	2.63374651
779.459	2.63739011
779.781	2.62687325
780.104	2.650988
780.426	2.64688702
780.748	2.63226007
781.071	2.6305711
781.393	2.6324331
781.715	2.64026232
782.038	2.65612474
782.36	2.63037102
782.682	2.64360657
783.004	2.62033243
783.326	2.61867907
783.648	2.6079409
783.97	2.62370464
784.292	2.62090509
784.613	2.6098436
784.935	2.61564765
785.257	2.61568085
785.578	2.62249093
785.9	2.61126947
786.222	2.59356512
786.543	2.59771046
786.865	2.59249
787.186	2.56218586
787.507	2.57502444
787.829	2.55382967
788.15	2.54869527
788.471	2.54063837
788.792	2.51710203
789.113	2.51191768
789.434	2.49587617
789.755	2.48935462
790.076	2.48708282
790.397	2.49289924
790.718	2.46816296
791.039	2.48461341
791.36	2.47919971
791.681	2.46420475
792.001	2.47043969
792.322	2.47363702
792.642	2.48476931
792.963	2.46417882
793.283	2.46106319
793.604	2.46339239
793.924	2.48735389
794.244	2.49288244
794.565	2.48334237
794.885	2.49246535
795.205	2.48127422
795.525	2.47081568
795.845	2.47341042
796.165	2.42998824
796.485	2.44859641
796.805	2.47056956
797.125	2.46807941
797.445	2.47495587
797.765	2.50166888
798.084	2.50269351
798.404	2.4933044
798.724	2.52155596
799.043	2.47958201
799.363	2.46684027
799.682	2.45602399
800.002	2.42536147
800.321	2.4373181
800.64	2.4363881
800.96	2.4286038
801.279	2.44636342
801.598	2.44771969
801.917	2.44092716
802.236	2.44508259
802.555	2.43536843
802.874	2.41681388
803.193	2.41940556
803.512	2.42721275
803.831	2.42362511
804.149	2.41758738
804.468	2.40349644
804.787	2.43806996
805.105	2.44926131
805.424	2.47094026
805.743	2.47094492
806.061	2.47672324
806.379	2.47027473
806.698	2.51030584
807.016	2.47434567
807.334	2.48214365
807.653	2.46403686
807.971	2.47555191
808.289	2.46061025
808.607	2.4354439
808.925	2.44385864
809.243	2.41028538
809.561	2.40282623
809.879	2.39024187
810.197	2.38125243
810.514	2.39446308
810.832	2.37111218
811.15	2.33774615
811.467	2.33328827
811.785	2.2945146
812.102	2.28358418
812.42	2.27579505
812.737	2.21565014
813.055	2.17132688
813.372	2.11151843
813.689	2.06220317
814.006	2.03753388
814.324	1.99355574
814.641	1.94990122
814.958	1.89848686
815.275	1.90513774
815.592	1.84944688
815.909	1.84157986
816.226	1.78107872
816.542	1.78203016
816.859	1.81802705
817.176	1.809708
817.493	1.82193834
817.809	1.81780348
818.126	1.82500648
818.442	1.84002646
818.759	1.85559305
819.075	1.86416569
819.391	1.86849396
819.708	1.89893711
820.024	1.95115235
820.34	2.0217389
820.656	2.08907918
820.972	2.10105359
821.289	2.12667906
821.605	2.11449292
821.921	2.05419797
822.236	1.92761738
822.552	1.78435009
822.868	1.71723036
823.184	1.71973488
823.5	1.80222329
823.815	1.86263575
824.131	1.94077364
824.446	2.00798805
824.762	2.07303226
825.077	2.10406849
825.393	2.09840109
825.708	2.11228177
826.023	2.14348455
826.339	2.17675337
826.654	2.17524744
826.969	2.16461364
827.284	2.10477366
827.599	2.03874128
827.914	2.04913363
828.229	2.02174796
828.544	2.0346913
828.859	2.01529954
829.174	2.02399468
829.488	2.05527028
829.803	2.04753223
830.118	2.05280195
830.432	2.05233347
830.747	2.08211625
831.061	2.08457854
831.376	2.07900132
831.69	2.07576246
832.004	2.06148796
832.319	2.08711479
832.633	2.11590306
832.947	2.0893556
833.261	2.07628241
833.575	2.08937092
833.889	2.10658007
834.203	2.14558492
834.517	2.18952821
834.831	2.22334273
835.145	2.22633953
835.459	2.2401355
835.773	2.22802003
836.086	2.24154851
836.4	2.24607494
836.713	2.26666159
837.027	2.24908974
837.34	2.24734893
837.654	2.3005885
837.967	2.28061647
838.281	2.30880395
838.594	2.29445355
838.907	2.32587343
839.22	2.30828876
839.533	2.32916756
839.846	2.34544994
840.159	2.34258124
840.472	2.35462762
840.785	2.33922718
841.098	2.347986
841.411	2.32153213
841.724	2.34831382
842.036	2.34809061
842.349	2.37077266
842.662	2.34641218
842.974	2.35845263
843.287	2.35579724
843.599	2.35364857
843.912	2.36925879
844.224	2.36309138
844.536	2.35883411
844.849	2.37888721
845.161	2.38466096
845.473	2.3949266
845.785	2.36584417
846.097	2.38084935
846.409	2.37434534
846.721	2.38836157
847.033	2.39301479
847.345	2.37250684
847.656	2.40094194
847.968	2.38499774
848.28	2.37568453
848.592	2.3952875
848.903	2.37236554
849.215	2.31368085
849.526	2.26309775
849.838	2.22627605
850.149	2.23175386
850.46	2.24177247
850.772	2.26651904
851.083	2.28544804
851.394	2.28975795
851.705	2.29311798
852.016	2.27607935
852.327	2.30770756
852.638	2.32070944
852.949	2.30582388
853.26	2.25810567
853.571	2.1396085
853.882	2.06185227
854.192	2.00895084
854.503	2.01933899
854.814	2.09690057
855.124	2.14515415
855.435	2.17955158
855.745	2.25346491
856.055	2.28059124
856.366	2.28678499
856.676	2.31129818
856.986	2.34583165
857.297	2.32833205
857.607	2.34513765
857.917	2.36637046
858.227	2.36099804
858.537	2.35940116
858.847	2.350868
859.157	2.33584991
859.467	2.33646613
859.776	2.32719431
860.086	2.30713144
860.396	2.33613496
860.705	2.30766826
861.015	2.31175293
861.325	2.31557408
861.634	2.35465584
861.943	2.33594497
862.253	2.34843074
862.562	2.35371082
862.871	2.33808473
863.181	2.37949586
863.49	2.34565784
863.799	2.34294191
864.108	2.34553763
864.417	2.32481302
864.726	2.29722029
865.035	2.30430027
865.344	2.28211922
865.653	2.17063541
865.961	2.11876517
866.27	2.05930839
866.579	2.04908751
866.887	2.13999401
867.196	2.18481044
867.504	2.2178309
867.813	2.23901769
868.121	2.22084537
868.43	2.23198704
868.738	2.23676169
869.046	2.27392096
869.354	2.27443481
869.662	2.29355043
869.971	2.28905423
870.279	2.28473103
870.587	2.30846131
870.894	2.2856069
871.202	2.28485525
871.51	2.31679167
871.818	2.31372363
872.126	2.34167958
872.433	2.30348185
872.741	2.28712199
873.049	2.2805463
873.356	2.28143801
873.664	2.27904304
873.971	2.27219975
874.278	2.25332026
874.586	2.24592491
874.893	2.29276223
875.2	2.2642733
875.507	2.27176689
875.814	2.28377543
876.121	2.27395233
876.428	2.31834179
876.735	2.26964874
877.042	2.28038816
877.349	2.25799487
877.656	2.26590464
877.963	2.25927227
878.269	2.28972019
878.576	2.27902602
878.883	2.25454513
879.189	2.26529658
879.496	2.27017467
879.802	2.26132564
880.108	2.22332111
880.415	2.19470876
880.721	2.21339538
881.027	2.19707671
881.333	2.20099348
881.639	2.24105565
881.946	2.23888043
882.252	2.24339509
882.558	2.249563
882.863	2.21430192
883.169	2.21343529
883.475	2.24631116
883.781	2.24929042
884.087	2.24447916
884.392	2.21739975
884.698	2.24911696
885.003	2.2552959
885.309	2.26255703
885.614	2.20813836
885.92	2.22739191
886.225	2.18154298
886.53	2.16604976
886.836	2.20538488
887.141	2.20625268
887.446	2.19096182
887.751	2.20253328
888.056	2.24895612
888.361	2.22509138
888.666	2.19379697
888.971	2.21988838
889.275	2.22606124
889.58	2.22049962
889.885	2.2146454
890.19	2.21199319
890.494	2.21755844
890.799	2.22115106
891.103	2.16385007
891.408	2.18886722
891.712	2.1903091
892.016	2.15869645
892.321	2.18730029
892.625	2.10596046
892.929	2.06373342
893.233	2.06767287
893.537	2.06303778
893.841	2.09144658
894.145	1.99801187
894.449	1.96653639
894.753	1.9688103
895.057	1.9263076
895.361	1.88734969
895.664	1.81578589
895.968	1.80520206
896.272	1.73685335
896.575	1.71047743
896.879	1.67763698
897.182	1.64078202
897.486	1.65966853
897.789	1.64100079
898.092	1.65897645
898.396	1.61954618
898.699	1.49287948
899.002	1.45102139
899.305	1.45310719
899.608	1.49836951
899.911	1.50263405
900.214	1.45714749
900.517	1.46512565
900.82	1.44628339
901.122	1.47607745
901.425	1.45244863
901.728	1.44266355
902.03	1.47660124
902.333	1.48580159
902.635	1.51801894
902.938	1.59090984
903.24	1.63039205
903.543	1.70947632
903.845	1.70241508
904.147	1.73647094
904.449	1.7758953
904.751	1.83603833
905.054	1.78232776
905.356	1.85865102
905.658	1.83680922
905.96	1.80599356
906.261	1.76397435
906.563	1.70130674
906.865	1.71632343
907.167	1.59492996
907.468	1.59152756
907.77	1.54962139
908.072	1.55441769
908.373	1.49869595
908.674	1.49577704
908.976	1.45752269
909.277	1.4304386
909.579	1.43180631
909.88	1.40923569
910.181	1.46820642
910.482	1.42145384
910.783	1.46511618
911.084	1.45731542
911.385	1.53043633
911.686	1.48010007
911.987	1.51473384
912.288	1.52420366
912.589	1.51638781
912.889	1.45984755
913.19	1.40220054
913.491	1.3909448
913.791	1.44828836
914.092	1.47827442
914.392	1.45905193
914.692	1.45828043
914.993	1.41610647
915.293	1.37590228
915.593	1.3387482
915.894	1.45409814
916.194	1.45765872
916.494	1.47030948
916.794	1.42234298
917.094	1.42203128
917.394	1.42782061
917.694	1.3989746
917.993	1.37122677
918.293	1.40858662
918.593	1.50755418
918.892	1.51601849
919.192	1.50084387
919.492	1.56254657
919.791	1.60154348
920.091	1.62951587
920.39	1.67001721
920.689	1.61900543
920.989	1.62868596
921.288	1.66817561
921.587	1.65431139
921.886	1.71228982
922.185	1.68253053
922.484	1.65482373
922.783	1.70850963
923.082	1.68144541
923.381	1.68825222
923.68	1.69463334
923.978	1.63663045
924.277	1.58375433
924.576	1.57410766
924.874	1.60428742
925.173	1.66129777
925.471	1.58764515
925.77	1.65379754
926.068	1.60044025
926.367	1.63718656
926.665	1.67001829
926.963	1.59621681
927.261	1.60984067
927.559	1.60535696
927.857	1.55122467
928.155	1.50771445
928.453	1.44757537
928.751	1.42456107
929.049	1.36302589
929.347	1.33870805
929.645	1.26735936
929.942	1.16820427
930.24	1.15319838
930.537	1.06720373
930.835	0.99432891
931.132	1.02768395
931.43	0.96470478
931.727	0.88676555
932.025	0.85486743
932.322	0.7744901
932.619	0.71200694
932.916	0.70567112
933.213	0.62487133
933.51	0.55618587
933.807	0.60501691
934.104	0.44540463
934.401	0.46551033
934.698	0.49789333
934.995	0.48634885
935.291	0.51751006
935.588	0.50921854
935.885	0.48754996
936.181	0.48360905
936.478	0.51181087
936.774	0.38004773
937.071	0.447219
937.367	0.4864882
937.663	0.42561518
937.96	0.41769182
938.256	0.52178183
938.552	0.45358496
938.848	0.49295072
939.144	0.60133729
939.44	0.60994428
939.736	0.73798074
940.032	0.71176246
940.328	0.68443925
940.623	0.76712645
940.919	0.87796043
941.215	0.80889156
941.51	0.8782311
941.806	0.90039873
942.101	0.89220483
942.397	0.80175397
942.692	0.89601266
942.987	0.90026489
943.283	0.76702982
943.578	0.79207164
943.873	0.82350556
944.168	0.81061395
944.463	0.71899194
944.758	0.68268457
945.053	0.53555652
945.348	0.65902249
945.643	0.71793409
945.938	0.72194309
946.233	0.69560162
946.527	0.59547911
946.822	0.6885304
947.116	0.64412874
947.411	0.70086586
947.705	0.65062154
948	0.64599737
948.294	0.73227135
948.589	0.71309811
948.883	0.70905305
949.177	0.74804973
949.471	0.80974297
949.765	0.74861857
950.059	0.74378849
950.353	0.8459923
950.647	0.82920165
950.941	0.73571861
951.235	0.69845948
951.529	0.74006753
951.822	0.77801216
952.116	0.91759941
952.41	0.8284935
952.703	0.75415773
952.997	0.79030113
953.29	0.75835596
953.584	0.72516862
953.877	0.84624154
954.17	0.8604624
954.463	0.78211534
954.757	0.83138607
955.05	0.89497501
955.343	0.86944872
955.636	0.8738711
955.929	0.71548879
956.222	0.73528778
956.514	0.87305869
956.807	0.92410037
957.1	0.95803441
957.393	0.79948907
957.685	0.77329499
957.978	0.82132787
958.27	0.97005784
958.563	0.90439118
958.855	1.01829474
959.148	0.92119055
959.44	0.88778508
959.732	1.04441198
960.024	0.8920714
960.317	0.93933318
960.609	1.0281038
960.901	0.89571208
961.193	0.87012471
961.485	0.90126438
961.777	0.83521154
962.068	0.87155725
962.36	1.10526055
962.652	1.07760389
962.943	0.98987008
963.235	0.96934449
963.527	1.25577212
963.818	0.96291203
964.11	1.30714319
964.401	1.16195824
964.692	1.20470988
964.984	1.17567686
965.275	1.13773515
965.566	1.39343217
965.857	1.09040478
966.148	1.29684612
966.439	1.03688936
966.73	1.26424448
967.021	1.29776531
967.312	1.26760934
967.603	1.257039
967.893	1.32753094
968.184	1.32587281
968.475	1.38530123
968.765	1.3340371
969.056	1.16621045
969.346	1.45648484
969.637	1.36272003
969.927	1.5076481
970.217	1.525536
970.508	1.58148761
970.798	1.53349934
971.088	1.43428569
971.378	1.74998432
971.668	1.73363243
971.958	1.80128659
972.248	1.44993723
972.538	1.79002147
972.828	1.6956428
973.117	1.6093675
973.407	1.87983453
973.697	1.53495964
973.986	1.72279816
974.276	1.87373582
974.565	1.81941879
974.855	1.51710054
975.144	1.64871728
975.433	1.78763389
975.723	1.51725225
976.012	1.68845319
976.301	1.40066254
976.59	1.397458
976.879	1.72729314
977.168	1.50417306
977.457	1.68508276
977.746	1.28591075
978.035	1.6535422
978.323	1.94438365
978.612	1.50001923
978.901	1.43304543
979.189	1.59163617
979.478	1.70643479
979.767	1.65802896
980.055	1.78317974
980.343	1.45604285
980.632	1.69777811
980.92	1.56629266
981.208	1.63562833
981.496	1.71856766
981.784	1.94581673
982.073	1.93582434
982.361	1.74565297
982.648	1.85230709
982.936	1.69583054
983.224	1.68256974
983.512	1.95105145
983.8	1.99939176
984.087	1.74223411
984.375	1.55864594
984.663	2.31210509
984.95	2.03902331
985.238	2.09566083
985.525	1.88820239
985.812	1.92673478
986.1	2.16867302
986.387	2.0048848
986.674	1.91297952
986.961	2.04399981
987.248	2.06823685
987.535	1.57993924
987.822	1.73049398
988.109	2.11481855
988.396	1.67690819
988.683	2.04204397
988.969	1.83736546
989.256	2.38927094
989.543	2.17445888
989.829	1.99451102
990.116	2.20893774
990.402	2.39010304
990.689	2.17889318
990.975	2.01953444
991.261	1.95354465
991.548	1.89418878
991.834	1.91594271
992.12	1.35297982
992.406	2.1704312
992.692	2.00174115
992.978	2.35208413
993.264	2.06733965
993.55	2.6095295
993.836	2.32095324
994.121	1.6895478
994.407	2.00800021
994.693	3.00131277
994.978	2.54236683
995.264	2.36573765
995.549	2.02323617
995.835	3.002041
996.12	1.97839958
996.405	2.25700054
996.691	2.11040648
996.976	1.85236236
997.261	2.56669131
997.546	1.99151599
997.831	2.72473519
998.116	2.83049678
998.401	2.25583815
998.686	2.7027804
998.971	2.98160771
999.255	2.47280803
999.54	2.62489919
999.825	3.02213316
1000.109	2.6931142
1000.394	3.21050051
1000.678	2.50240357
1000.963	2.00388478
1001.247	2.77556842
1001.531	2.79113317
1001.816	3.04366666
1002.1	2.79239822
1002.384	2.82460018
1002.668	3.42460101
1002.952	2.98761636
1003.236	3.01494629
1003.52	2.82510574
1003.804	3.29312736
1004.088	3.14400751
1004.371	2.30976117
1004.655	2.68453306
1004.939	2.99590994
1005.222	2.63042283
1005.506	2.59310366
1005.789	2.57881999
1006.073	2.15041038
1006.356	3.22793704
1006.64	3.62699611
1006.923	3.38548615
1007.206	3.15173819
1007.489	3.36875879
1007.772	2.67043
1008.055	2.16327118
1008.338	2.78507243
1008.621	2.70103439
1008.904	2.67806779
1009.187	3.07354688
1009.47	3.88214041
1009.752	1.364395
1010.035	3.01208972
1010.318	3.00459621
1010.6	3.38674611
1010.883	4.01250838
1011.165	3.68288187
1011.447	3.24887236
1011.73	3.63716527
1012.012	4.45658675
1012.294	3.32877633
1012.576	3.46707775
1012.858	3.20146489
1013.14	3.66290589
1013.422	4.2318313
1013.704	2.90668341
1013.986	3.01674724
1014.268	4.8145596
1014.55	1.41301403
1014.831	5.69554085
1015.113	3.12779196
1015.395	2.63010197
1015.676	2.3692913
1015.958	3.34424219
1016.239	2.24438417
1016.52	7.38502871
1016.802	4.65010799
1017.083	5.65188878
1017.364	6.20252536
1017.645	4.97489918
1017.926	5.88169647
1018.207	5.92388639
1018.488	3.30909504
1018.769	4.9071556
1019.05	3.19793616
1019.331	6.47313012
1019.612	1.98302926
1019.892	1.98365009
1020.173	1.98365009
