Wavelength	REM49059000003.asd
350	 1.53756994764922 
351	 2.12173118307207 
352	 1.62901184941212 
353	 2.08058935500305 
354	 1.98828571187002 
355	 1.39175675870099 
356	 0.866069480614432 
357	 1.38298172503019 
358	 1.68387317356576 
359	 1.33337578045874 
360	 2.17219068631873 
361	 2.68519751662159 
362	 2.64152642975406 
363	 2.63244651605124 
364	 3.40762254172441 
365	 3.9516358502389 
366	 3.36374745990065 
367	 3.35989074055713 
368	 3.43260225149504 
369	 3.48660947472059 
370	 4.48996076819806 
371	 4.36852133987105 
372	 3.50289027777852 
373	 3.51148355161052 
374	 4.17644464426155 
375	 4.64780708235106 
376	 4.29253531794837 
377	 3.70847759228506 
378	 3.64694904418675 
379	 4.195166757667 
380	 4.57118463635504 
381	 4.42359757809248 
382	 4.11330848023154 
383	 4.31210433173575 
384	 4.42731401401426 
385	 4.98590503274344 
386	 5.96386906199524 
387	 4.68821807503441 
388	 4.42969016669664 
389	 5.80357706832585 
390	 6.07238922636053 
391	 6.34935358416902 
392	 6.45666729924261 
393	 5.92101158722519 
394	 5.73625867594697 
395	 6.31498561251915 
396	 7.50722885487998 
397	 7.76826802529709 
398	 7.69174304325845 
399	 7.85175165636389 
400	 8.95547280467729 
401	 8.56736598198763 
402	 7.96622481625878 
403	 9.57350675293014 
404	 9.77554781587976 
405	 9.52830236567557 
406	 9.95363158931358 
407	 10.4480971381806 
408	 10.0650167314756 
409	 9.31178307454741 
410	 10.7752619707678 
411	 12.0839505454876 
412	 12.3706430666037 
413	 11.5493353423837 
414	 12.05329546559 
415	 12.8019549245006 
416	 12.7850528597469 
417	 13.7707747306721 
418	 14.2999367667718 
419	 14.1412054189853 
420	 15.0458669956245 
421	 15.7224262316286 
422	 16.1624475758563 
423	 16.8959710793479 
424	 17.2998283887725 
425	 17.6188029591568 
426	 18.1339890229079 
427	 18.4904752538217 
428	 18.7916015708543 
429	 19.0772650413381 
430	 19.2073755947216 
431	 19.4034598843741 
432	 19.9740134036301 
433	 21.262331376995 
434	 21.7517814794769 
435	 21.6667856579416 
436	 21.6789566099599 
437	 22.0210426045161 
438	 22.914769270892 
439	 24.0204197920859 
440	 23.6342571354435 
441	 23.140330636052 
442	 23.3119295862451 
443	 24.5568443079038 
444	 25.1504962977249 
445	 25.4937861896572 
446	 26.5315667265827 
447	 27.2318785960493 
448	 27.4309137119448 
449	 27.3270024970043 
450	 27.8231625276727 
451	 28.6079021209807 
452	 29.4868076452677 
453	 30.4029461768469 
454	 31.2949629121517 
455	 31.7760047922369 
456	 31.4229435715906 
457	 31.799936719249 
458	 32.258324533623 
459	 32.1802687720354 
460	 33.1206125107492 
461	 34.2133166709591 
462	 34.7275294232172 
463	 34.1535784383083 
464	 33.6767456977991 
465	 33.7909937762346 
466	 34.5589035013041 
467	 35.1744081705096 
468	 35.4400960402071 
469	 35.4555068269724 
470	 35.9112653604374 
471	 36.5415955124788 
472	 37.0051206971336 
473	 36.9266267882001 
474	 37.4454698039781 
475	 38.3945796415638 
476	 37.9278956650202 
477	 38.6391051182637 
478	 39.7817487347819 
479	 39.3651261094367 
480	 40.1654812524701 
481	 41.4119191849714 
482	 42.0254529698935 
483	 42.5670997562458 
484	 43.6691533926228 
485	 45.2438673977337 
486	 45.6982856037072 
487	 46.4414974472377 
488	 47.6826179312416 
489	 48.8256722163173 
490	 50.4634092092796 
491	 52.1259602905469 
492	 53.2490881952261 
493	 55.308848004839 
494	 57.6433842185011 
495	 59.9610274175938 
496	 64.1352214694554 
497	 68.2482418798652 
498	 71.7259160123522 
499	 75.7401016267049 
500	 80.6862148364123 
501	 86.520598097257 
502	 92.8808079864442 
503	 99.6476510762234 
504	 107.69382957474 
505	 117.6286757884 
506	 127.098883441437 
507	 138.081653299592 
508	 151.605403748316 
509	 165.740850208049 
510	 181.27984995147 
511	 198.250900379947 
512	 215.893774108497 
513	 236.117195910843 
514	 258.896159903881 
515	 283.280004857603 
516	 307.538895861859 
517	 333.667801936339 
518	 363.207073942615 
519	 392.879177788307 
520	 423.220015812119 
521	 454.790357520586 
522	 488.150245738366 
523	 521.356975414432 
524	 554.155223408363 
525	 587.569188312889 
526	 620.887972231984 
527	 653.621741462284 
528	 685.425440020615 
529	 716.937709398497 
530	 747.795191365116 
531	 777.509344005665 
532	 805.658433467668 
533	 832.337198674571 
534	 857.795763443019 
535	 882.562870059336 
536	 906.49668426169 
537	 929.190550271198 
538	 950.022931263734 
539	 970.331829298413 
540	 990.282190671316 
541	 1009.56420244347 
542	 1026.90590336449 
543	 1044.21587493739 
544	 1062.57506148445 
545	 1079.78973477312 
546	 1096.68867040071 
547	 1113.38381281796 
548	 1129.05489429896 
549	 1143.983215388 
550	 1158.30256595471 
551	 1172.06432778644 
552	 1184.05855931748 
553	 1194.23426249349 
554	 1202.81273453077 
555	 1209.78950477867 
556	 1214.81005166559 
557	 1217.29909617685 
558	 1215.85351077355 
559	 1213.13509697179 
560	 1209.28241333425 
561	 1201.60513931685 
562	 1191.80450480644 
563	 1180.16544439838 
564	 1166.48406769613 
565	 1151.35855349482 
566	 1133.6055823255 
567	 1112.68870495749 
568	 1092.84943961328 
569	 1072.35951787348 
570	 1050.27561217136 
571	 1028.07813615342 
572	 1005.84911664384 
573	 984.140967373592 
574	 963.964211650888 
575	 945.021057377032 
576	 926.963143516436 
577	 909.466013928568 
578	 893.386555193653 
579	 879.718123712674 
580	 868.870144784786 
581	 858.857279888843 
582	 850.704888601631 
583	 844.932797414147 
584	 840.875719449232 
585	 839.140925271551 
586	 838.291459559668 
587	 835.081954866267 
588	 830.442491143499 
589	 823.831558198769 
590	 814.569072679478 
591	 803.993593224311 
592	 793.401172592188 
593	 783.304504469333 
594	 771.68235363131 
595	 758.847582138192 
596	 745.29365397496 
597	 731.902816445352 
598	 717.241200916964 
599	 701.929323573071 
600	 688.002236177638 
601	 673.414600026667 
602	 658.441672064619 
603	 643.99034328934 
604	 630.156996858861 
605	 617.257516525042 
606	 605.187627124598 
607	 592.661475959429 
608	 579.445543734453 
609	 566.004174330349 
610	 553.960318546406 
611	 542.308056445003 
612	 530.437557472528 
613	 517.886479858275 
614	 506.884690939889 
615	 496.465141836349 
616	 485.238147810523 
617	 474.997371691467 
618	 465.023286430202 
619	 454.784997497454 
620	 444.62116064042 
621	 436.323400262831 
622	 429.345158576044 
623	 420.077594784 
624	 410.871607508389 
625	 403.708002344788 
626	 400.545847157102 
627	 400.292856570906 
628	 401.558169199693 
629	 402.956201717167 
630	 403.708201745098 
631	 405.206256586938 
632	 407.692760675352 
633	 408.552692421094 
634	 408.635539116497 
635	 407.573693714648 
636	 403.845472439951 
637	 399.875754163422 
638	 394.450434361171 
639	 385.351473035802 
640	 376.323246696953 
641	 366.508809512782 
642	 354.839101162339 
643	 342.396064410131 
644	 330.201913944771 
645	 318.858494600641 
646	 308.441892667027 
647	 297.878879967086 
648	 288.067775721402 
649	 281.396236389119 
650	 275.19172627196 
651	 270.136355069514 
652	 267.491157364121 
653	 265.257198167965 
654	 262.305532620291 
655	 258.496757028898 
656	 256.298625366214 
657	 253.992747091418 
658	 250.472287432838 
659	 245.153776309058 
660	 239.794933464096 
661	 235.164060615988 
662	 231.487934428091 
663	 227.277527552084 
664	 223.12846350804 
665	 219.952027111722 
666	 217.403964801521 
667	 216.347009521298 
668	 216.954687513738 
669	 217.698499628821 
670	 219.443102611342 
671	 222.50851725025 
672	 226.800214785422 
673	 233.10835765229 
674	 240.489428907368 
675	 247.574191327784 
676	 256.013534851291 
677	 265.827962941232 
678	 276.709565002329 
679	 287.831834004205 
680	 301.536958364857 
681	 317.912451904565 
682	 333.188841926884 
683	 350.109872396947 
684	 370.661714569346 
685	 396.75254119974 
686	 428.101610281359 
687	 467.146415162986 
688	 516.764165420399 
689	 577.773517883067 
690	 653.457866484212 
691	 746.019343760729 
692	 855.244778584231 
693	 981.336851752756 
694	 1123.69220458312 
695	 1280.99447394668 
696	 1449.63531762332 
697	 1627.89463165412 
698	 1814.51773254232 
699	 2005.74544257953 
700	 2200.64180599055 
701	 2398.19564124536 
702	 2595.60491416485 
703	 2791.9695896698 
704	 2986.10596908105 
705	 3176.19382109029 
706	 3363.09725376881 
707	 3546.20656144458 
708	 3724.50174927409 
709	 3901.87713125105 
710	 4077.0087248528 
711	 4248.23308637213 
712	 4418.04282953588 
713	 4584.20452032728 
714	 4746.31778456851 
715	 4908.18376287966 
716	 5066.34107419091 
717	 5220.34884546193 
718	 5371.65673956431 
719	 5518.93905756277 
720	 5661.93033123474 
721	 5800.80953247158 
722	 5936.93614430235 
723	 6067.61128634691 
724	 6191.44522882265 
725	 6311.05383885028 
726	 6424.30143645914 
727	 6531.63925402129 
728	 6635.9403876508 
729	 6733.61050780739 
730	 6825.47665395506 
731	 6913.47659896491 
732	 6995.50804805862 
733	 7072.40850331869 
734	 7144.51879765376 
735	 7209.31685536509 
736	 7270.66141534205 
737	 7329.10688766792 
738	 7381.53198206597 
739	 7428.71254884584 
740	 7470.48193154182 
741	 7506.39765476726 
742	 7535.6254744167 
743	 7560.03192767816 
744	 7581.18023676736 
745	 7597.86763179123 
746	 7613.4216107298 
747	 7628.94917640534 
748	 7642.83171146936 
749	 7655.48594893907 
750	 7664.47607758556 
751	 7666.66537713841 
752	 7666.39239179752 
753	 7663.29822650138 
754	 7657.10789510633 
755	 7650.54253213539 
756	 7642.1977551248 
757	 7632.21976792261 
758	 7623.08156476759 
759	 7611.67763263216 
760	 7598.51789371426 
761	 7585.46016989913 
762	 7570.65818215678 
763	 7555.03889121764 
764	 7539.49989618189 
765	 7523.53151768389 
766	 7506.01075747867 
767	 7487.0146058966 
768	 7468.27311762641 
769	 7447.17042362979 
770	 7425.6317249219 
771	 7406.80828572978 
772	 7385.3036318612 
773	 7362.70137185546 
774	 7340.92860426491 
775	 7319.95095069661 
776	 7297.61051370408 
777	 7273.10249801536 
778	 7247.02621168358 
779	 7220.96697849241 
780	 7194.98693395827 
781	 7168.48565900606 
782	 7140.95738776149 
783	 7112.82758763098 
784	 7084.93748783769 
785	 7059.48616283145 
786	 7030.98111525709 
787	 7000.13740351863 
788	 6973.24794059947 
789	 6944.35499071685 
790	 6914.0188087216 
791	 6884.25397249539 
792	 6853.91515655921 
793	 6823.45498867238 
794	 6792.73932906006 
795	 6759.9748369938 
796	 6727.36746246678 
797	 6695.06852941473 
798	 6661.99044685824 
799	 6628.55838624105 
800	 6595.33379004193 
801	 6562.34256173761 
802	 6527.23105115851 
803	 6491.28606718079 
804	 6455.19862334315 
805	 6418.53041387786 
806	 6382.8820694928 
807	 6347.64364226599 
808	 6311.41503145042 
809	 6275.7215432626 
810	 6240.40445300044 
811	 6204.71942669952 
812	 6166.65234189332 
813	 6129.7252062535 
814	 6093.45116575659 
815	 6053.77272102495 
816	 6017.02451759569 
817	 5980.82286823813 
818	 5941.56376600508 
819	 5902.7959982609 
820	 5865.20119698445 
821	 5828.46811129746 
822	 5790.72259453859 
823	 5754.18663927603 
824	 5718.99375011525 
825	 5684.0869931497 
826	 5646.79616201131 
827	 5608.5814756149 
828	 5570.74859195632 
829	 5531.92814510876 
830	 5493.41990668961 
831	 5455.14323269028 
832	 5415.8256580722 
833	 5380.07173742842 
834	 5344.73240673244 
835	 5306.03466333255 
836	 5267.92825130648 
837	 5231.33719081342 
838	 5195.98822360025 
839	 5159.93752262518 
840	 5125.74231135737 
841	 5091.82714034727 
842	 5055.44850518849 
843	 5019.55602894077 
844	 4983.31345127771 
845	 4946.14728722377 
846	 4908.88806370788 
847	 4872.86887161155 
848	 4837.60001816615 
849	 4801.46606931204 
850	 4765.70548417396 
851	 4731.09306291577 
852	 4697.60101044831 
853	 4663.00887783897 
854	 4627.77586238953 
855	 4593.12681666682 
856	 4560.98321167103 
857	 4528.30706607078 
858	 4495.37991958937 
859	 4462.82945611684 
860	 4428.61968981449 
861	 4394.65333863648 
862	 4361.2805240585 
863	 4326.64854173129 
864	 4292.23476159263 
865	 4258.25299502441 
866	 4224.33486678348 
867	 4189.01567026713 
868	 4154.51770258272 
869	 4121.99281661239 
870	 4090.65567540583 
871	 4058.55212493466 
872	 4025.74545764709 
873	 3993.03214515691 
874	 3959.12465284691 
875	 3926.5065957457 
876	 3895.64187633326 
877	 3862.3397311783 
878	 3828.66976973031 
879	 3795.41770433904 
880	 3762.83596003587 
881	 3730.28207193501 
882	 3697.7254885856 
883	 3665.23841861284 
884	 3632.870708586 
885	 3601.27372403791 
886	 3569.91889701428 
887	 3537.7814585705 
888	 3505.61152044763 
889	 3473.79250602043 
890	 3442.53173041475 
891	 3411.84685590265 
892	 3381.12791252696 
893	 3350.34494160743 
894	 3319.63459397977 
895	 3287.43899770519 
896	 3255.57280878552 
897	 3224.79423181282 
898	 3192.48882619272 
899	 3160.9737323567 
900	 3129.73905208972 
901	 3097.31522278929 
902	 3066.38084505766 
903	 3036.24286522323 
904	 3006.15452488733 
905	 2976.14008240269 
906	 2945.68054498386 
907	 2915.14139624942 
908	 2885.36452758932 
909	 2857.41379313179 
910	 2829.4350245076 
911	 2800.57348428533 
912	 2772.18677055565 
913	 2742.58879126678 
914	 2712.98999540633 
915	 2684.95861342305 
916	 2655.47910163263 
917	 2626.22420324962 
918	 2597.8409165106 
919	 2569.19045973032 
920	 2541.62903081961 
921	 2514.42344722425 
922	 2486.47965141045 
923	 2457.86224884383 
924	 2429.84145738907 
925	 2402.37059377406 
926	 2374.12733043862 
927	 2346.14372880452 
928	 2318.59689396197 
929	 2291.5413387076 
930	 2265.33786525262 
931	 2239.05149107371 
932	 2212.1178363281 
933	 2184.401600262 
934	 2157.25179145463 
935	 2131.25119781708 
936	 2106.08340453906 
937	 2079.885183568 
938	 2053.72655163938 
939	 2027.37950695823 
940	 2000.49085990441 
941	 1974.82347998098 
942	 1949.97596730156 
943	 1925.15422025573 
944	 1899.32750482229 
945	 1874.31660786535 
946	 1850.01273147979 
947	 1825.72510170024 
948	 1800.62110717303 
949	 1775.65674118785 
950	 1750.8347579214 
951	 1725.58431566754 
952	 1700.79227270623 
953	 1676.58652511883 
954	 1652.8530764198 
955	 1629.24660043073 
956	 1606.17199480043 
957	 1582.94556417423 
958	 1559.08639812693 
959	 1536.90317620566 
960	 1515.58349593542 
961	 1494.49465280981 
962	 1473.32285336958 
963	 1451.72114664981 
964	 1429.90559863924 
965	 1408.50074335042 
966	 1388.94892513406 
967	 1369.03720994597 
968	 1348.78619944355 
969	 1328.95510347772 
970	 1308.73112467125 
971	 1289.29087775551 
972	 1270.50676485623 
973	 1250.89137614455 
974	 1231.26958235405 
975	 1212.06720365929 
976	 1193.26358987094 
977	 1173.89161440419 
978	 1155.13131547304 
979	 1136.77279847119 
980	 1118.19027670649 
981	 1099.55064250451 
982	 1081.89616926568 
983	 1064.93563636774 
984	 1047.25860527114 
985	 1029.75759712687 
986	 1012.48113289033 
987	 995.434206570247 
988	 978.809955332501 
989	 961.942509086499 
990	 945.179511095496 
991	 929.015602550167 
992	 913.234678332364 
993	 897.161850560275 
994	 880.813109677529 
995	 864.714816391617 
996	 849.532280398749 
997	 834.188620093487 
998	 818.273027643512 
999	 802.422224730423 
1000	 786.81618053181 
1001	 3146.29749700767 
1002	 3166.15407517619 
1003	 3186.13538451758 
1004	 3208.59911214976 
1005	 3228.8718037084 
1006	 3249.30842537376 
1007	 3267.94165640778 
1008	 3282.69586906006 
1009	 3301.33192480814 
1010	 3320.35144850611 
1011	 3342.04923076195 
1012	 3364.0112606753 
1013	 3387.88207773626 
1014	 3411.59374347606 
1015	 3432.54308186687 
1016	 3452.57901768274 
1017	 3472.22422566771 
1018	 3492.33260577723 
1019	 3509.09479798508 
1020	 3530.95441613527 
1021	 3557.55909663513 
1022	 3581.66079078394 
1023	 3605.83955330037 
1024	 3631.03192810697 
1025	 3656.01731866599 
1026	 3680.12237403563 
1027	 3708.3466208438 
1028	 3739.08128514469 
1029	 3768.21533452764 
1030	 3798.56054555048 
1031	 3826.95701675462 
1032	 3853.46430556621 
1033	 3881.46449166164 
1034	 3909.03768451986 
1035	 3936.86835779569 
1036	 3964.87530369654 
1037	 3993.94130264592 
1038	 4024.62955294166 
1039	 4053.99893882556 
1040	 4083.53080171594 
1041	 4112.8402620764 
1042	 4141.10351723553 
1043	 4166.88692450964 
1044	 4195.48129295239 
1045	 4225.88095183021 
1046	 4256.01162911882 
1047	 4289.30481464675 
1048	 4317.34439669791 
1049	 4343.14974604839 
1050	 4368.34281475089 
1051	 4390.92763521706 
1052	 4413.58897176986 
1053	 4435.78127940554 
1054	 4457.77503062759 
1055	 4478.14112808323 
1056	 4499.10174622161 
1057	 4520.93337464749 
1058	 4541.53189417481 
1059	 4561.2409234003 
1060	 4581.56196333228 
1061	 4603.47349371476 
1062	 4627.03917675719 
1063	 4647.8999407155 
1064	 4669.09499087959 
1065	 4689.45813192613 
1066	 4705.62205655645 
1067	 4726.47584683955 
1068	 4749.71420727073 
1069	 4773.10648710277 
1070	 4799.52775572041 
1071	 4823.92612596284 
1072	 4847.45560627276 
1073	 4872.04399723625 
1074	 4895.71187275679 
1075	 4919.06373337439 
1076	 4947.5635099706 
1077	 4977.68575354482 
1078	 5009.09722890344 
1079	 5044.01530569627 
1080	 5077.55380248233 
1081	 5111.1218872964 
1082	 5145.21842901105 
1083	 5180.0220101748 
1084	 5215.68228948754 
1085	 5250.23028662971 
1086	 5288.43322954756 
1087	 5329.12877932502 
1088	 5369.92619196706 
1089	 5413.72683175233 
1090	 5456.92536430735 
1091	 5500.82949786793 
1092	 5543.21720728309 
1093	 5587.13889709306 
1094	 5632.23587539833 
1095	 5675.93235727232 
1096	 5720.63898094581 
1097	 5762.54515515506 
1098	 5802.06190050225 
1099	 5842.50585067616 
1100	 5882.03465479301 
1101	 5921.48973416173 
1102	 5961.67609163089 
1103	 6000.29815111291 
1104	 6036.00544724457 
1105	 6074.25704051675 
1106	 6113.7844080321 
1107	 6152.55240427345 
1108	 6193.89593343458 
1109	 6233.05131092247 
1110	 6269.62710567463 
1111	 6302.6859700189 
1112	 6338.80657262086 
1113	 6374.17096843079 
1114	 6409.86383395446 
1115	 6448.24952826089 
1116	 6483.43623648402 
1117	 6517.34985264721 
1118	 6549.3748213656 
1119	 6578.09302784195 
1120	 6608.89511814075 
1121	 6638.61038090817 
1122	 6669.22417218252 
1123	 6705.01261563995 
1124	 6735.19684316021 
1125	 6762.82287717757 
1126	 6787.51327860548 
1127	 6813.38757316053 
1128	 6835.81116249304 
1129	 6860.62120009517 
1130	 6888.33686808814 
1131	 6912.30471565482 
1132	 6935.63215707726 
1133	 6956.03028491451 
1134	 6972.28384421503 
1135	 6991.14524615476 
1136	 7011.74597324141 
1137	 7027.44871376689 
1138	 7039.92772736095 
1139	 7054.94038092479 
1140	 7065.97844626374 
1141	 7079.44147971675 
1142	 7094.77063293846 
1143	 7115.82926859978 
1144	 7129.89775343014 
1145	 7141.10784531799 
1146	 7153.76599648028 
1147	 7163.69694710093 
1148	 7177.16519113975 
1149	 7194.14108004995 
1150	 7207.37922043132 
1151	 7218.96417737671 
1152	 7232.70173080472 
1153	 7243.88719970314 
1154	 7258.8955707967 
1155	 7277.71903927026 
1156	 7296.46719283373 
1157	 7318.08406595168 
1158	 7337.5441159824 
1159	 7355.76601249197 
1160	 7375.37649895947 
1161	 7395.12742643056 
1162	 7413.69076713817 
1163	 7434.03042934631 
1164	 7456.69226338132 
1165	 7477.43245337826 
1166	 7498.17848739318 
1167	 7517.58895765207 
1168	 7535.3936449125 
1169	 7554.89873172366 
1170	 7574.26234618449 
1171	 7593.5866387079 
1172	 7613.60981354017 
1173	 7633.80473024802 
1174	 7653.14798594899 
1175	 7673.53363072299 
1176	 7695.8055130125 
1177	 7717.15646444495 
1178	 7737.89032330477 
1179	 7759.36271247536 
1180	 7780.51881176547 
1181	 7801.75031651557 
1182	 7821.85712045086 
1183	 7841.77880302424 
1184	 7861.13085703306 
1185	 7879.07897727389 
1186	 7897.96414669202 
1187	 7917.9961332674 
1188	 7935.87002399522 
1189	 7952.54026531126 
1190	 7969.55750900452 
1191	 7984.3170732289 
1192	 8001.55587432963 
1193	 8021.38128599789 
1194	 8039.33111377045 
1195	 8056.62865199637 
1196	 8074.77055955319 
1197	 8092.56436886351 
1198	 8109.77622525184 
1199	 8128.81291748199 
1200	 8150.7183902242 
1201	 8168.78249574592 
1202	 8185.90980402642 
1203	 8202.91511082423 
1204	 8217.98023209248 
1205	 8233.74535807671 
1206	 8248.90401222216 
1207	 8265.9122859966 
1208	 8284.66924929164 
1209	 8301.07465198 
1210	 8318.4641059373 
1211	 8334.14921728158 
1212	 8344.66814331861 
1213	 8359.78881306997 
1214	 8379.48289710217 
1215	 8395.35203605029 
1216	 8411.69375069901 
1217	 8426.24639547366 
1218	 8439.47375047181 
1219	 8451.38113700717 
1220	 8464.33170355722 
1221	 8478.92536896394 
1222	 8492.02063334056 
1223	 8503.43786775951 
1224	 8516.34436447671 
1225	 8530.59766681583 
1226	 8542.82269314833 
1227	 8554.29681006725 
1228	 8565.98142648652 
1229	 8576.80823322619 
1230	 8587.38071726029 
1231	 8597.57025076872 
1232	 8608.76036628189 
1233	 8620.52587361939 
1234	 8630.89828367484 
1235	 8641.11214094682 
1236	 8652.22656248068 
1237	 8660.96034681761 
1238	 8667.58193740683 
1239	 8677.41421199683 
1240	 8685.50869164738 
1241	 8692.64674745188 
1242	 8699.347630897 
1243	 8706.760219064 
1244	 8712.75340841638 
1245	 8719.97272538583 
1246	 8728.64397890738 
1247	 8735.60186104277 
1248	 8741.7522812026 
1249	 8748.42315419034 
1250	 8753.32551205024 
1251	 8761.08362949625 
1252	 8771.59988524218 
1253	 8780.102389776 
1254	 8790.13353348896 
1255	 8798.82750264224 
1256	 8806.61117954786 
1257	 8811.89066072975 
1258	 8818.10876171908 
1259	 8824.18402247978 
1260	 8829.91977177561 
1261	 8834.48921632313 
1262	 8837.0556251402 
1263	 8839.87810112589 
1264	 8848.08080383073 
1265	 8859.89637608024 
1266	 8868.63779461057 
1267	 8880.40569859084 
1268	 8891.61082747691 
1269	 8898.76834528937 
1270	 8909.36351615343 
1271	 8926.45552342387 
1272	 8937.19095918314 
1273	 8943.74911694037 
1274	 8953.06649213015 
1275	 8960.61470742333 
1276	 8969.56914033508 
1277	 8983.29591444964 
1278	 8991.3156025286 
1279	 8996.72303680374 
1280	 9002.35758234257 
1281	 9002.71020769463 
1282	 9000.92272715942 
1283	 8998.47327040107 
1284	 8993.12229602141 
1285	 8986.27720567596 
1286	 8979.20470103004 
1287	 8969.19331492889 
1288	 8958.83331749138 
1289	 8942.59032842693 
1290	 8921.08069049122 
1291	 8901.0864087645 
1292	 8879.86092968077 
1293	 8854.09603760047 
1294	 8825.66339641591 
1295	 8797.08670283095 
1296	 8764.17062086497 
1297	 8732.43647139697 
1298	 8704.34099369981 
1299	 8670.05680784237 
1300	 8630.33055575024 
1301	 8591.74759581165 
1302	 8549.89572181982 
1303	 8510.22131138996 
1304	 8470.74108215435 
1305	 8429.45237316124 
1306	 8388.57135021189 
1307	 8348.30213470828 
1308	 8308.8757314374 
1309	 8267.74906435863 
1310	 8228.99235136655 
1311	 8193.83214412737 
1312	 8157.60352464591 
1313	 8123.95613466582 
1314	 8089.02606184116 
1315	 8052.34926414695 
1316	 8016.89794397003 
1317	 7979.92076934413 
1318	 7948.59073846642 
1319	 7921.76199031467 
1320	 7892.90596005067 
1321	 7865.78494719916 
1322	 7839.9092599188 
1323	 7812.423227187 
1324	 7787.0954177849 
1325	 7765.48040467595 
1326	 7743.98707029905 
1327	 7723.43432327483 
1328	 7702.25261444509 
1329	 7679.66758885834 
1330	 7660.48392562087 
1331	 7642.97651727001 
1332	 7624.23861834729 
1333	 7608.67142424311 
1334	 7594.91151935974 
1335	 7578.22325575261 
1336	 7560.58092498845 
1337	 7549.82466754437 
1338	 7537.83794196416 
1339	 7525.0107487393 
1340	 7513.57921547926 
1341	 7504.30356301492 
1342	 7493.25498171504 
1343	 7483.46834503459 
1344	 7476.97827763098 
1345	 7469.70510896928 
1346	 7462.12213704057 
1347	 7454.96190826896 
1348	 7448.87378173551 
1349	 7442.66050725922 
1350	 7435.24646354308 
1351	 7428.36439905953 
1352	 7424.91346321498 
1353	 7418.19911393153 
1354	 7408.87012634994 
1355	 7398.77922426745 
1356	 7391.46259777925 
1357	 7386.81208963804 
1358	 7385.4749841224 
1359	 7385.42277076777 
1360	 7384.375151542 
1361	 7381.09318009631 
1362	 7374.44444515004 
1363	 7369.66972755772 
1364	 7366.46412471948 
1365	 7361.67186098889 
1366	 7358.17237827151 
1367	 7359.69797613725 
1368	 7351.98148101174 
1369	 7342.03692259395 
1370	 7327.09499637281 
1371	 7305.93603202754 
1372	 7282.24207759538 
1373	 7257.34193911732 
1374	 7225.67833107557 
1375	 7188.19562400365 
1376	 7147.31469300665 
1377	 7102.3559826855 
1378	 7050.38106196725 
1379	 6992.99139423417 
1380	 6932.80882318934 
1381	 6867.44798051228 
1382	 6797.92945700841 
1383	 6725.97144067257 
1384	 6646.86673459979 
1385	 6564.09914128203 
1386	 6476.679631888 
1387	 6386.39501217464 
1388	 6295.3597950067 
1389	 6199.26368543741 
1390	 6097.54580358177 
1391	 5992.69610390752 
1392	 5886.92812566319 
1393	 5780.8606911815 
1394	 5672.48544007276 
1395	 5560.15755103134 
1396	 5447.43368386648 
1397	 5337.73757290788 
1398	 5230.19292710481 
1399	 5125.92808446023 
1400	 5026.63479303695 
1401	 4929.53611431819 
1402	 4832.32818925926 
1403	 4741.97831917587 
1404	 4657.91175950584 
1405	 4576.29041050057 
1406	 4499.16696807862 
1407	 4423.43898823232 
1408	 4349.54651758267 
1409	 4281.01059491249 
1410	 4213.45613380145 
1411	 4153.80278890667 
1412	 4103.82900807144 
1413	 4052.32039385597 
1414	 4003.28384979787 
1415	 3957.70176911401 
1416	 3913.90214092515 
1417	 3873.14761081294 
1418	 3834.38243604376 
1419	 3800.4199040299 
1420	 3768.48249034277 
1421	 3736.78800494195 
1422	 3708.54881481349 
1423	 3682.87347679643 
1424	 3658.42649823811 
1425	 3634.72931960536 
1426	 3611.89043554985 
1427	 3591.26317046098 
1428	 3570.24676266735 
1429	 3548.94286578191 
1430	 3533.61284613993 
1431	 3519.83480228415 
1432	 3505.61290798786 
1433	 3495.52836644928 
1434	 3484.8441252524 
1435	 3473.29780073998 
1436	 3464.74648808919 
1437	 3458.54238348094 
1438	 3451.46933995791 
1439	 3445.86013659023 
1440	 3440.03406206158 
1441	 3433.65864673276 
1442	 3428.81434542457 
1443	 3423.8428447161 
1444	 3421.12144033173 
1445	 3421.00684091544 
1446	 3420.74736129229 
1447	 3422.78510044215 
1448	 3422.40595947889 
1449	 3418.7623934961 
1450	 3418.84418051422 
1451	 3420.64572748033 
1452	 3422.26278234749 
1453	 3426.35065625345 
1454	 3429.90730193346 
1455	 3431.48927140154 
1456	 3434.94721622907 
1457	 3445.09816256665 
1458	 3452.60009844011 
1459	 3458.77675572801 
1460	 3467.98952123188 
1461	 3474.10967761606 
1462	 3483.41313222601 
1463	 3499.3528290759 
1464	 3515.48992524429 
1465	 3534.14409098542 
1466	 3552.34913924983 
1467	 3567.1219887141 
1468	 3582.52424078545 
1469	 3599.46466971988 
1470	 3619.01474216643 
1471	 3642.63101857706 
1472	 3667.88504662607 
1473	 3691.86801264339 
1474	 3717.39612955174 
1475	 3746.63350707198 
1476	 3777.82963098859 
1477	 3806.75596509707 
1478	 3837.14003741895 
1479	 3864.66151151062 
1480	 3888.19544187679 
1481	 3915.71983834543 
1482	 3943.14240700932 
1483	 3973.86177693284 
1484	 4009.56832377787 
1485	 4039.45492568213 
1486	 4067.00000877205 
1487	 4098.36118381775 
1488	 4127.88116813901 
1489	 4159.91192895961 
1490	 4198.67586838453 
1491	 4231.75520436375 
1492	 4260.73368078601 
1493	 4291.93535991102 
1494	 4320.93856680255 
1495	 4353.52141967102 
1496	 4390.10192650379 
1497	 4424.52091709065 
1498	 4460.84251571715 
1499	 4494.06297763751 
1500	 4523.41014120877 
1501	 4555.27939515761 
1502	 4586.19469000576 
1503	 4619.43809220321 
1504	 4656.37894248478 
1505	 4689.97547386456 
1506	 4723.97968316597 
1507	 4756.52233105126 
1508	 4786.52296280038 
1509	 4815.83647440752 
1510	 4850.24353642574 
1511	 4881.62038005467 
1512	 4909.29337769305 
1513	 4943.20231329586 
1514	 4975.88237648152 
1515	 5004.74121508672 
1516	 5038.60764395664 
1517	 5069.35777034647 
1518	 5094.76103283033 
1519	 5122.42409235951 
1520	 5150.63031596772 
1521	 5178.04545213689 
1522	 5205.78157333757 
1523	 5231.97728752628 
1524	 5257.65720555749 
1525	 5285.90135145007 
1526	 5315.50430966586 
1527	 5343.3044346544 
1528	 5369.6751172902 
1529	 5395.03636621398 
1530	 5419.01735289057 
1531	 5445.24600124229 
1532	 5472.3578746608 
1533	 5497.11731629699 
1534	 5519.80042187775 
1535	 5541.41341862046 
1536	 5565.3075455687 
1537	 5590.29418997373 
1538	 5613.06814457216 
1539	 5637.41373767011 
1540	 5659.0694153501 
1541	 5676.21232147912 
1542	 5696.28410156806 
1543	 5718.74246385507 
1544	 5738.24830350992 
1545	 5755.68101680788 
1546	 5776.15957180937 
1547	 5797.53956524638 
1548	 5815.42706788185 
1549	 5833.35341650725 
1550	 5851.4914935633 
1551	 5867.26414203392 
1552	 5883.79374195864 
1553	 5902.12460889977 
1554	 5918.4980677693 
1555	 5932.71768908001 
1556	 5946.98977104029 
1557	 5961.87666624236 
1558	 5976.69657654294 
1559	 5989.15643967881 
1560	 6003.39579618732 
1561	 6018.98240456986 
1562	 6034.31540221182 
1563	 6052.82057596405 
1564	 6065.88485556664 
1565	 6075.8385193445 
1566	 6086.44874320651 
1567	 6093.15071432322 
1568	 6102.41301857403 
1569	 6113.91301744574 
1570	 6123.5623865715 
1571	 6133.17844537592 
1572	 6141.2385359995 
1573	 6147.47401808435 
1574	 6155.35200496268 
1575	 6163.32107417912 
1576	 6170.65333248204 
1577	 6177.82105200585 
1578	 6185.89558260803 
1579	 6194.85513646889 
1580	 6201.31903264498 
1581	 6209.30430692672 
1582	 6213.98391407755 
1583	 6212.65392141894 
1584	 6215.32163741876 
1585	 6217.50478386566 
1586	 6221.50447314563 
1587	 6230.26571739104 
1588	 6235.44432318615 
1589	 6240.27752521179 
1590	 6243.62165207819 
1591	 6242.66070517797 
1592	 6245.01558969424 
1593	 6248.79952786244 
1594	 6251.80816777026 
1595	 6256.70335242504 
1596	 6259.86888191952 
1597	 6262.54759176439 
1598	 6262.88324556207 
1599	 6259.45062333956 
1600	 6259.88010703507 
1601	 6261.38787030711 
1602	 6261.53426566794 
1603	 6264.48531307536 
1604	 6265.10320135274 
1605	 6262.69316331323 
1606	 6259.91203858171 
1607	 6255.55971455538 
1608	 6253.60687784236 
1609	 6252.76306365354 
1610	 6250.10825412341 
1611	 6247.88719027713 
1612	 6246.13281497869 
1613	 6243.41374681557 
1614	 6239.74333179501 
1615	 6237.27834431031 
1616	 6233.53705348353 
1617	 6226.81721533591 
1618	 6221.47740249492 
1619	 6217.40200806842 
1620	 6212.32280033174 
1621	 6206.44327196092 
1622	 6200.50022235372 
1623	 6194.02283384491 
1624	 6188.477565431 
1625	 6184.66801249789 
1626	 6178.31667059716 
1627	 6168.60541955952 
1628	 6162.93770836627 
1629	 6159.04699791891 
1630	 6153.2551982286 
1631	 6151.60517899266 
1632	 6145.47328387179 
1633	 6133.24359153526 
1634	 6123.54624073365 
1635	 6113.37055633988 
1636	 6104.3090650347 
1637	 6096.30923207278 
1638	 6088.56554495279 
1639	 6081.15253227629 
1640	 6073.91363084871 
1641	 6068.50560014728 
1642	 6060.40160040938 
1643	 6051.76704644451 
1644	 6041.97447991933 
1645	 6027.71149571543 
1646	 6017.77037070579 
1647	 6011.57936274787 
1648	 6001.25534997975 
1649	 5990.51707957219 
1650	 5979.97866902898 
1651	 5967.33402675541 
1652	 5953.9581430065 
1653	 5941.80128214105 
1654	 5928.14692995472 
1655	 5909.49252581922 
1656	 5895.92799800699 
1657	 5887.68129041816 
1658	 5873.90765372315 
1659	 5859.82644390708 
1660	 5843.96570132661 
1661	 5821.57690580527 
1662	 5805.24101070111 
1663	 5792.605317296 
1664	 5778.09337718257 
1665	 5765.6893507112 
1666	 5750.78915641375 
1667	 5732.97397918883 
1668	 5717.26396059458 
1669	 5702.2191194717 
1670	 5686.63398923227 
1671	 5670.66172904869 
1672	 5656.33745491218 
1673	 5642.83083642811 
1674	 5628.43437174822 
1675	 5615.77343240921 
1676	 5601.12819479041 
1677	 5584.20069431054 
1678	 5568.28759630248 
1679	 5552.87459686072 
1680	 5536.26826075332 
1681	 5518.85390250234 
1682	 5501.81712612327 
1683	 5484.90898522256 
1684	 5466.4838347769 
1685	 5446.28071480709 
1686	 5429.21805982161 
1687	 5412.55307896068 
1688	 5395.77549842359 
1689	 5382.6129470129 
1690	 5364.8034611811 
1691	 5342.64167901945 
1692	 5324.6393301375 
1693	 5308.11309683723 
1694	 5288.70110147658 
1695	 5269.6341831889 
1696	 5250.30005092689 
1697	 5227.93102599521 
1698	 5208.21104260133 
1699	 5189.65952991446 
1700	 5173.84192235823 
1701	 5160.89178579815 
1702	 5142.2093170863 
1703	 5123.6429029724 
1704	 5105.26772069874 
1705	 5082.21038578667 
1706	 5062.90094174853 
1707	 5047.70354116707 
1708	 5029.58851352016 
1709	 5009.70403829582 
1710	 4988.17109566324 
1711	 4967.60534543259 
1712	 4945.34769123245 
1713	 4924.84303740958 
1714	 4907.80005305202 
1715	 4890.8222303369 
1716	 4873.48485535199 
1717	 4854.02530833209 
1718	 4831.83904289486 
1719	 4810.76872224551 
1720	 4788.78336612979 
1721	 4767.30412447755 
1722	 4746.65500006575 
1723	 4726.15440321713 
1724	 4706.1056280545 
1725	 4685.25362436198 
1726	 4664.15473820037 
1727	 4643.42450849721 
1728	 4621.93915308097 
1729	 4601.08831966551 
1730	 4582.94435152096 
1731	 4561.25157781822 
1732	 4535.60487938763 
1733	 4513.38835374014 
1734	 4490.4918728035 
1735	 4469.21554006072 
1736	 4451.6342315876 
1737	 4433.30899010016 
1738	 4415.26325819539 
1739	 4395.26791790719 
1740	 4376.0759625977 
1741	 4354.13614693457 
1742	 4327.88051389507 
1743	 4305.80118286151 
1744	 4284.80760952805 
1745	 4262.95317153947 
1746	 4243.0980062427 
1747	 4221.15818935355 
1748	 4197.25658381605 
1749	 4173.72233625789 
1750	 4150.35553910655 
1751	 4125.89522124455 
1752	 4099.36061269465 
1753	 4076.55457030662 
1754	 4055.41144755106 
1755	 4033.38784901657 
1756	 4011.43415087613 
1757	 3989.57143271945 
1758	 3965.61661419396 
1759	 3941.33008678554 
1760	 3921.29124709572 
1761	 3901.72106935517 
1762	 3879.89987347897 
1763	 3860.54642211104 
1764	 3840.16874834978 
1765	 3817.85507255887 
1766	 3797.43970723951 
1767	 3777.2912342262 
1768	 3756.70477477775 
1769	 3735.9699176901 
1770	 3716.43511142586 
1771	 3698.77705307768 
1772	 3679.01198543585 
1773	 3656.10632420704 
1774	 3636.25634874283 
1775	 3617.32156705772 
1776	 3597.76846099238 
1777	 3580.05683839067 
1778	 3562.22466754231 
1779	 3543.11689200389 
1780	 3524.5804025544 
1781	 3507.86563607009 
1782	 3490.58018386426 
1783	 3471.97466384394 
1784	 3455.52410234889 
1785	 3440.23944393654 
1786	 3424.54681660518 
1787	 3409.04538319871 
1788	 3394.23769317408 
1789	 3381.06361606852 
1790	 3362.86774083466 
1791	 3347.2510012214 
1792	 3334.01219122364 
1793	 3317.88981121453 
1794	 3305.85217592329 
1795	 3294.04903222153 
1796	 3278.26019127862 
1797	 3262.74499046255 
1798	 3246.00327060919 
1799	 3229.58793050414 
1800	 3211.62063991159 
1801	 5119.40523940342 
1802	 5166.03833938437 
1803	 5222.74538946307 
1804	 5273.59525250224 
1805	 5307.49292045922 
1806	 5336.16296591114 
1807	 5373.15900002505 
1808	 5420.80680581421 
1809	 5457.90505861291 
1810	 5482.30128258707 
1811	 5514.0116999068 
1812	 5542.84700105672 
1813	 5565.92937017765 
1814	 5597.77653831486 
1815	 5642.1417942176 
1816	 5681.21523119838 
1817	 5705.47854154004 
1818	 5726.34743216057 
1819	 5753.44436236675 
1820	 5776.72865654606 
1821	 5800.68684299574 
1822	 5824.01136936381 
1823	 5846.79205997755 
1824	 5866.80503171886 
1825	 5889.1377546481 
1826	 5903.68209753238 
1827	 5913.32544096368 
1828	 5921.02816491745 
1829	 5928.05623882284 
1830	 5938.51739118753 
1831	 5950.26271573845 
1832	 5963.83851523286 
1833	 5986.48015087386 
1834	 6000.23595732041 
1835	 5998.56209710193 
1836	 5994.38037279376 
1837	 5994.24936872007 
1838	 6003.68874316305 
1839	 6004.76966598769 
1840	 6013.02675762723 
1841	 6015.73091192986 
1842	 6012.01849471495 
1843	 5999.12378370535 
1844	 5991.00386069352 
1845	 5984.53873499057 
1846	 5976.74469011332 
1847	 5956.77260422722 
1848	 5937.99590673919 
1849	 5923.20217191291 
1850	 5904.22940039249 
1851	 5884.97583285043 
1852	 5847.36530458838 
1853	 5817.92276144155 
1854	 5789.63568616257 
1855	 5741.43865289158 
1856	 5691.97816416063 
1857	 5643.68309174254 
1858	 5594.37272223413 
1859	 5534.10900994438 
1860	 5472.82360105298 
1861	 5403.02066989204 
1862	 5324.15311600983 
1863	 5239.72301892475 
1864	 5141.78130287705 
1865	 5043.35398666943 
1866	 4941.9083275184 
1867	 4834.76133090874 
1868	 4721.82691225646 
1869	 4605.57924772388 
1870	 4484.40864300589 
1871	 4358.04039427568 
1872	 4223.87994940302 
1873	 4085.86181517284 
1874	 3956.18072665723 
1875	 3822.48027022474 
1876	 3681.60528789256 
1877	 3540.60259733504 
1878	 3398.21424532836 
1879	 3251.56612415122 
1880	 3097.35811956129 
1881	 2947.39436401634 
1882	 2790.81055596912 
1883	 2643.42802013892 
1884	 2500.4770786788 
1885	 2372.61887431482 
1886	 2237.7220053598 
1887	 2101.57067501039 
1888	 1971.86836508449 
1889	 1843.14015202034 
1890	 1719.83732802454 
1891	 1594.30669996629 
1892	 1488.28473938695 
1893	 1400.75277872112 
1894	 1305.21927924915 
1895	 1205.70899919837 
1896	 1130.36648231132 
1897	 1061.67939794188 
1898	 998.359046920301 
1899	 934.122449435326 
1900	 882.251047744773 
1901	 835.260216901769 
1902	 784.399350808016 
1903	 740.135363004841 
1904	 707.953864845067 
1905	 682.987166911202 
1906	 659.575143574478 
1907	 639.06326548337 
1908	 611.869184460886 
1909	 583.038707299686 
1910	 566.356059250134 
1911	 549.493011626251 
1912	 534.139300755344 
1913	 535.352156640052 
1914	 528.284402496796 
1915	 513.397009446732 
1916	 499.060956974155 
1917	 483.104674757089 
1918	 465.45110168438 
1919	 454.955971780979 
1920	 442.962981242353 
1921	 434.222846666271 
1922	 432.741718428384 
1923	 431.634504561247 
1924	 429.656362324683 
1925	 429.410375250309 
1926	 430.172005520775 
1927	 443.426710206201 
1928	 440.660314787631 
1929	 426.002518333448 
1930	 427.934571769435 
1931	 434.112390392381 
1932	 434.744109447736 
1933	 442.740231097255 
1934	 448.431822024113 
1935	 448.389490599577 
1936	 446.172126649792 
1937	 443.830999873075 
1938	 442.796869285682 
1939	 450.751786817736 
1940	 461.550871439687 
1941	 464.569764869782 
1942	 475.590858156403 
1943	 480.372049129494 
1944	 468.257702157835 
1945	 467.46380993689 
1946	 473.926310421998 
1947	 481.606266850254 
1948	 491.105637405617 
1949	 503.370959415496 
1950	 509.757286104965 
1951	 514.95631190938 
1952	 524.775041122647 
1953	 531.943675490103 
1954	 541.077201310063 
1955	 558.495692243816 
1956	 570.463262664906 
1957	 574.148799751896 
1958	 584.662228496304 
1959	 605.656869474174 
1960	 614.676624984856 
1961	 626.061711132631 
1962	 639.604293695776 
1963	 648.723484522316 
1964	 650.355636950769 
1965	 658.113265294872 
1966	 666.409419617243 
1967	 676.516851706987 
1968	 689.413383983705 
1969	 702.395944857452 
1970	 716.078463535899 
1971	 730.542156797814 
1972	 745.851602995793 
1973	 765.682890992442 
1974	 775.922407358104 
1975	 775.63831270006 
1976	 792.227923686054 
1977	 819.096205484751 
1978	 830.984884437181 
1979	 842.039034426387 
1980	 858.434295867714 
1981	 860.760335976295 
1982	 872.153890698676 
1983	 897.650525172953 
1984	 928.826315043671 
1985	 946.191460424753 
1986	 953.269650560568 
1987	 968.142462370231 
1988	 981.956366010124 
1989	 995.441136858316 
1990	 1007.56945373507 
1991	 1026.69618362428 
1992	 1057.80498968115 
1993	 1072.50384099644 
1994	 1084.54160764145 
1995	 1091.82720003314 
1996	 1103.09163190349 
1997	 1098.79822909421 
1998	 1111.25266069971 
1999	 1141.70699831774 
2000	 1159.56384759815 
2001	 1171.41776510602 
2002	 1187.31040384612 
2003	 1203.41815955766 
2004	 1220.42784034307 
2005	 1238.66766388557 
2006	 1257.95862369519 
2007	 1283.10691413909 
2008	 1298.68441524335 
2009	 1316.50089642923 
2010	 1333.56510483309 
2011	 1353.73612252111 
2012	 1374.3534267701 
2013	 1392.3826366023 
2014	 1415.55470067279 
2015	 1430.38243286423 
2016	 1432.5308586453 
2017	 1445.43230926894 
2018	 1456.66594679044 
2019	 1474.01182948724 
2020	 1501.04383245779 
2021	 1531.07643406497 
2022	 1550.70795261149 
2023	 1566.32041569223 
2024	 1587.29447959544 
2025	 1609.68098680552 
2026	 1619.46951514431 
2027	 1622.44401390824 
2028	 1636.17868813082 
2029	 1641.51946914909 
2030	 1652.57321391294 
2031	 1677.24354715793 
2032	 1701.84921242936 
2033	 1711.13622239306 
2034	 1727.26838729853 
2035	 1744.01139086718 
2036	 1764.28417209163 
2037	 1779.98152302333 
2038	 1794.15813857716 
2039	 1811.14256988135 
2040	 1829.50885936433 
2041	 1843.77649401524 
2042	 1858.59544819265 
2043	 1872.22421858777 
2044	 1878.13966942677 
2045	 1891.60865891718 
2046	 1913.31301196984 
2047	 1925.27475007216 
2048	 1932.98445579798 
2049	 1953.53449040926 
2050	 1970.97087258632 
2051	 1987.74975660412 
2052	 2000.93264313118 
2053	 2014.74500473069 
2054	 2031.30120295083 
2055	 2049.03931991286 
2056	 2063.67160503119 
2057	 2073.34297147535 
2058	 2090.14712620297 
2059	 2108.13967179544 
2060	 2127.64422786889 
2061	 2144.29065838256 
2062	 2164.13935264808 
2063	 2177.60985301984 
2064	 2177.29114126666 
2065	 2189.75720596031 
2066	 2210.44646740271 
2067	 2223.71041766653 
2068	 2237.37749286971 
2069	 2246.41310147117 
2070	 2246.62270809628 
2071	 2257.40964913018 
2072	 2274.59447517363 
2073	 2283.19589809572 
2074	 2305.06374778152 
2075	 2323.10766620596 
2076	 2328.88402743524 
2077	 2341.88862313078 
2078	 2353.77928794741 
2079	 2361.6827647507 
2080	 2375.16955549658 
2081	 2395.96553260822 
2082	 2409.14927009945 
2083	 2420.93542947643 
2084	 2428.6768421839 
2085	 2423.22277028471 
2086	 2435.40405241946 
2087	 2458.3864943677 
2088	 2479.9055321495 
2089	 2489.53783732193 
2090	 2498.17285593556 
2091	 2506.79604806469 
2092	 2511.85921351568 
2093	 2526.82254957031 
2094	 2571.51772230382 
2095	 2580.30933385787 
2096	 2560.55215095631 
2097	 2567.08728926201 
2098	 2575.45166425688 
2099	 2578.76659422261 
2100	 2592.06245201127 
2101	 2606.22628278192 
2102	 2617.57128653223 
2103	 2617.79926123798 
2104	 2632.28463299673 
2105	 2659.45680473492 
2106	 2658.45118042283 
2107	 2653.15280871616 
2108	 2662.34729541686 
2109	 2677.13561696252 
2110	 2682.61291284068 
2111	 2692.00969884173 
2112	 2702.66293445679 
2113	 2706.49363586046 
2114	 2710.77334192878 
2115	 2723.15163456832 
2116	 2733.33821590777 
2117	 2740.5598979748 
2118	 2737.83305017249 
2119	 2755.37657211987 
2120	 2768.78619223162 
2121	 2759.41211647143 
2122	 2757.86634296778 
2123	 2765.27094938941 
2124	 2766.83297975922 
2125	 2770.67194154008 
2126	 2792.90248634731 
2127	 2796.57826448113 
2128	 2774.39814928268 
2129	 2776.9575113128 
2130	 2798.44731538006 
2131	 2802.19849324858 
2132	 2801.98536716342 
2133	 2808.59383087631 
2134	 2811.64143324892 
2135	 2809.24013520112 
2136	 2811.7626144836 
2137	 2818.34161142238 
2138	 2823.91720670958 
2139	 2815.81386468543 
2140	 2809.24219197895 
2141	 2815.74579650381 
2142	 2812.99316069909 
2143	 2796.30547934345 
2144	 2795.40885443989 
2145	 2806.78846439341 
2146	 2808.26157360164 
2147	 2805.018142412 
2148	 2811.56404396665 
2149	 2825.83351206748 
2150	 2827.32516159936 
2151	 2829.3513943652 
2152	 2833.35141840195 
2153	 2819.93034476402 
2154	 2798.47493016262 
2155	 2801.49749097249 
2156	 2816.4150291406 
2157	 2814.16272753343 
2158	 2811.6627064494 
2159	 2806.84175817653 
2160	 2784.46951384823 
2161	 2778.3998001599 
2162	 2787.09204941257 
2163	 2783.09891435542 
2164	 2775.00866236142 
2165	 2767.04479899377 
2166	 2751.37651093619 
2167	 2745.92344528991 
2168	 2752.95030518717 
2169	 2748.67970227503 
2170	 2740.78076345142 
2171	 2734.29830505897 
2172	 2723.64290884052 
2173	 2709.3538252184 
2174	 2712.07948147118 
2175	 2709.13293207403 
2176	 2697.69686807087 
2177	 2696.37584276888 
2178	 2689.0392866544 
2179	 2675.78505822476 
2180	 2662.70094932552 
2181	 2653.42356331365 
2182	 2640.85496631253 
2183	 2617.6300159871 
2184	 2607.11360310784 
2185	 2606.34157369366 
2186	 2595.06321729612 
2187	 2582.89118245676 
2188	 2575.66313617395 
2189	 2572.73682825679 
2190	 2553.36516698719 
2191	 2540.2973609068 
2192	 2539.81392047297 
2193	 2521.4209968819 
2194	 2497.24672550927 
2195	 2485.77712715345 
2196	 2475.9153670736 
2197	 2465.6011260765 
2198	 2465.16849223028 
2199	 2454.40738961882 
2200	 2432.96698883137 
2201	 2421.04269024887 
2202	 2413.61297689548 
2203	 2401.07139438609 
2204	 2389.78675441574 
2205	 2375.18003176299 
2206	 2352.8468523183 
2207	 2339.3762553962 
2208	 2334.76893681316 
2209	 2321.71019442121 
2210	 2309.03381265947 
2211	 2287.03308152458 
2212	 2273.46968958907 
2213	 2273.09964193173 
2214	 2270.22119802073 
2215	 2253.49907952666 
2216	 2233.78737606871 
2217	 2222.54274317184 
2218	 2207.80740503321 
2219	 2196.20642697776 
2220	 2189.16219303756 
2221	 2183.36655247973 
2222	 2170.21772514442 
2223	 2158.98149856673 
2224	 2152.82276331149 
2225	 2143.10364720757 
2226	 2129.00729496431 
2227	 2118.58928703731 
2228	 2111.43948173967 
2229	 2099.83363703011 
2230	 2085.92725176911 
2231	 2081.65726363122 
2232	 2069.49406648549 
2233	 2041.22955165505 
2234	 2023.74852146375 
2235	 2015.84436066258 
2236	 1997.84652647701 
2237	 1980.20100831556 
2238	 1969.69799362993 
2239	 1968.24280726444 
2240	 1960.40800607412 
2241	 1940.7991226535 
2242	 1931.08096251306 
2243	 1920.06194653903 
2244	 1900.49881935043 
2245	 1885.94508254176 
2246	 1885.46374137688 
2247	 1868.07704136352 
2248	 1830.86288588842 
2249	 1817.45420926806 
2250	 1815.40391883231 
2251	 1800.62942041013 
2252	 1795.564922335 
2253	 1780.17830522987 
2254	 1740.67705688117 
2255	 1722.99261185114 
2256	 1721.78718602809 
2257	 1706.71345443448 
2258	 1688.66587392019 
2259	 1677.38483413386 
2260	 1662.67213128698 
2261	 1650.74696983971 
2262	 1644.28936543524 
2263	 1628.06035795497 
2264	 1597.17691196874 
2265	 1580.10972430098 
2266	 1577.5062119796 
2267	 1568.33302205753 
2268	 1551.09535499054 
2269	 1530.34076758301 
2270	 1515.6869264522 
2271	 1493.40937718705 
2272	 1477.54411056459 
2273	 1477.72623163159 
2274	 1460.48663986384 
2275	 1423.49694445915 
2276	 1410.32462962241 
2277	 1411.42643345204 
2278	 1394.36678063373 
2279	 1378.90848583661 
2280	 1365.04705427611 
2281	 1336.56632358648 
2282	 1315.66540006578 
2283	 1307.20242775794 
2284	 1292.84139909328 
2285	 1272.63882258977 
2286	 1255.72275688832 
2287	 1243.33544869311 
2288	 1225.49654968344 
2289	 1200.88175837401 
2290	 1182.36943489418 
2291	 1165.67938095537 
2292	 1150.7976609833 
2293	 1143.21022896977 
2294	 1127.65059190426 
2295	 1117.22665594084 
2296	 1107.89511295933 
2297	 1093.32948932576 
2298	 1077.96543327434 
2299	 1064.38296503531 
2300	 1046.73584694923 
2301	 1033.5387515078 
2302	 1025.42705337576 
2303	 1012.70758612143 
2304	 997.653816210009 
2305	 986.377524618335 
2306	 977.832396234443 
2307	 964.903015592402 
2308	 953.195285055221 
2309	 934.245622614843 
2310	 901.706845180657 
2311	 888.459011603582 
2312	 887.59657703718 
2313	 874.165379228476 
2314	 862.993689408063 
2315	 852.016577578222 
2316	 825.257141543803 
2317	 815.099465114772 
2318	 830.303952463989 
2319	 822.442942726428 
2320	 805.270396007009 
2321	 789.973099317414 
2322	 758.611467875909 
2323	 740.561785740477 
2324	 738.723766960828 
2325	 725.058041932982 
2326	 699.928367538424 
2327	 688.103928586192 
2328	 683.79387791097 
2329	 672.705272635796 
2330	 668.807713003087 
2331	 662.140593200638 
2332	 645.616672306336 
2333	 630.407298255521 
2334	 614.114644596329 
2335	 603.872833098174 
2336	 608.403876623519 
2337	 597.494354655003 
2338	 578.234005501525 
2339	 575.263508419359 
2340	 563.256908240528 
2341	 536.750692502975 
2342	 525.265704290741 
2343	 526.679308748716 
2344	 517.360150024795 
2345	 503.965751228129 
2346	 494.763755121856 
2347	 485.399148855059 
2348	 476.250026976995 
2349	 472.443271615946 
2350	 458.960857866227 
2351	 432.474763372223 
2352	 428.155235774343 
2353	 434.469452821545 
2354	 427.959257385439 
2355	 431.761083125706 
2356	 424.705551189319 
2357	 395.632339691948 
2358	 385.479119340513 
2359	 388.33537939797 
2360	 382.193393389785 
2361	 377.99170334083 
2362	 368.229381490947 
2363	 351.936645089542 
2364	 338.952157299041 
2365	 320.373681306293 
2366	 311.867264283379 
2367	 309.840610642695 
2368	 306.590333958165 
2369	 311.118738854202 
2370	 309.554564672398 
2371	 308.511749478377 
2372	 299.444199544849 
2373	 277.600939576143 
2374	 269.025841219049 
2375	 263.815564691143 
2376	 255.173844893098 
2377	 251.7700474891 
2378	 249.643868215022 
2379	 241.084734770605 
2380	 238.105894446506 
2381	 248.392907950548 
2382	 248.83697570687 
2383	 245.497594387944 
2384	 239.253017494058 
2385	 224.406335426057 
2386	 215.734073352369 
2387	 209.14698931473 
2388	 200.579707166764 
2389	 192.476032197334 
2390	 186.822340552888 
2391	 174.6737871937 
2392	 173.2955397027 
2393	 191.958374179657 
2394	 192.854966324352 
2395	 185.55521951696 
2396	 183.105143825053 
2397	 172.867129935418 
2398	 162.924791782757 
2399	 156.377659725374 
2400	 153.407311440241 
2401	 148.062397721981 
2402	 143.740173195469 
2403	 148.590413861874 
2404	 148.395754615887 
2405	 143.553843044114 
2406	 138.138389140091 
2407	 132.550863538449 
2408	 125.0461733176 
2409	 110.027292593512 
2410	 102.019483091287 
2411	 100.134390111024 
2412	 94.2073889813159 
2413	 85.8258254423001 
2414	 84.8601474590816 
2415	 85.7845855952799 
2416	 86.5579645963585 
2417	 98.6793798059318 
2418	 103.632861120153 
2419	 98.7510736841352 
2420	 93.1103477754761 
2421	 79.3772271326179 
2422	 69.3145596694303 
2423	 77.17484552864 
2424	 77.6998999142161 
2425	 61.2750582447337 
2426	 63.8530220971409 
2427	 70.1047324478291 
2428	 50.7923044494871 
2429	 44.1780487459332 
2430	 51.7403654175473 
2431	 45.1236260673429 
2432	 38.127063774522 
2433	 50.9411496643128 
2434	 62.610910791452 
2435	 58.3081374046623 
2436	 57.7176248828247 
2437	 59.0574893807052 
2438	 55.2148475745519 
2439	 51.802255076069 
2440	 51.2223706102579 
2441	 45.0037522003195 
2442	 29.5650872839902 
2443	 20.3096762604857 
2444	 28.5248799940998 
2445	 49.0783756835957 
2446	 56.5318672089344 
2447	 48.0171396704087 
2448	 48.9244923547789 
2449	 47.8781638801436 
2450	 38.8594448515286 
2451	 35.9862792570014 
2452	 35.5226288525647 
2453	 35.124705851031 
2454	 26.0399934680017 
2455	 30.5540492157243 
2456	 33.9275838439023 
2457	 26.5757596420062 
2458	 25.3554755309496 
2459	 40.530786987918 
2460	 39.6735287316729 
2461	 23.3251251263343 
2462	 19.2300405763643 
2463	 11.5864838499397 
2464	 6.83315389007181 
2465	 14.4645323233353 
2466	 18.4065050084732 
2467	 23.0756110772343 
2468	 21.5302343661231 
2469	 12.7597415110476 
2470	 10.8559871449248 
2471	 6.16574329295579 
2472	 5.97038365519555 
2473	 18.2879595172062 
2474	 20.5511542177237 
2475	 15.4557391694017 
2476	 13.5855930042121 
2477	 9.03246240891229 
2478	 7.05022272020839 
2479	 10.5822775038174 
2480	 9.68801891882543 
2481	 3.45604945788449 
2482	 2.28128460862274 
2483	 5.11685237187536 
2484	 4.50390519836904 
2485	 0.940317492370431 
2486	 3.28208224055865 
2487	 11.9375326058899 
2488	 8.18352743733035 
2489	-4.8439778116527 
2490	-1.07425145016735 
2491	 9.35239921113568 
2492	 4.39588673739031 
2493	 0.199009405412915 
2494	 4.86972096161889 
2495	-0.407281813262317 
2496	-2.71453995183869 
2497	 15.3919961519451 
2498	 17.1954313187501 
2499	-5.08372007517774 
2500	-5.94793285516568 
