Wavelength	REM49059000001.asd
350	 66.3076476298904 
351	 73.3096800616873 
352	 80.1206069655766 
353	 87.2546088326114 
354	 94.9916031682581 
355	 103.112800943005 
356	 111.332278465039 
357	 120.286208881803 
358	 129.140856681468 
359	 137.478444953054 
360	 145.927168112102 
361	 154.885746431665 
362	 164.079619888157 
363	 172.75505076974 
364	 181.771959552414 
365	 190.199959161101 
366	 197.427037850875 
367	 206.30303143895 
368	 214.828733411896 
369	 222.081796938433 
370	 229.215274199197 
371	 236.127030448054 
372	 242.966419494308 
373	 249.96703568323 
374	 257.324625072898 
375	 264.7088661376 
376	 272.04501848658 
377	 280.752559105914 
378	 289.062620929464 
379	 296.787465830218 
380	 306.003964839988 
381	 316.270553556261 
382	 327.123547750614 
383	 337.971950330501 
384	 348.412009853597 
385	 359.820734888149 
386	 372.763521074192 
387	 383.980632344028 
388	 396.207034795335 
389	 410.413232920452 
390	 425.426984785047 
391	 440.746857004655 
392	 456.687621539947 
393	 473.806757461118 
394	 490.420084323096 
395	 508.427112623436 
396	 529.034864743996 
397	 549.701552133596 
398	 570.436676736894 
399	 591.839605447189 
400	 615.27818719493 
401	 640.267886047478 
402	 666.880090014261 
403	 695.219268188428 
404	 724.141295723274 
405	 753.541666767943 
406	 783.886511064069 
407	 816.995735519363 
408	 850.954797752665 
409	 885.379639371342 
410	 921.857008318868 
411	 960.470082485629 
412	 1000.58948505477 
413	 1041.33162019549 
414	 1084.39292894006 
415	 1129.46302435724 
416	 1175.795743451 
417	 1222.40803999465 
418	 1270.15860495029 
419	 1319.12679244354 
420	 1368.01813072809 
421	 1418.7628918837 
422	 1471.34388404792 
423	 1524.65222719699 
424	 1576.58644138823 
425	 1628.29899109933 
426	 1681.05456628784 
427	 1733.30905771606 
428	 1784.92735200027 
429	 1836.20243544274 
430	 1888.37508530614 
431	 1938.78839863685 
432	 1987.96232661578 
433	 2038.34216714406 
434	 2086.1811271535 
435	 2132.41051618349 
436	 2178.43418007315 
437	 2221.04063566416 
438	 2262.4808925091 
439	 2303.53269790399 
440	 2340.5154271207 
441	 2376.21121638552 
442	 2411.86167624996 
443	 2447.67301794392 
444	 2479.85744995201 
445	 2509.67573908913 
446	 2539.77562268758 
447	 2568.24050014373 
448	 2595.22790536547 
449	 2621.23157337064 
450	 2646.89503856779 
451	 2672.88453968963 
452	 2698.47572518516 
453	 2720.86030758189 
454	 2743.72338051511 
455	 2767.40583151348 
456	 2790.80857503737 
457	 2814.26828085047 
458	 2837.67393977459 
459	 2860.80652077761 
460	 2883.14836212402 
461	 2905.94438790334 
462	 2929.3352353908 
463	 2950.99844096447 
464	 2973.94876505049 
465	 2998.20567506432 
466	 3021.79837675119 
467	 3046.90484450887 
468	 3073.03326019033 
469	 3099.05833316627 
470	 3124.86003883781 
471	 3152.40734880746 
472	 3182.63913763311 
473	 3213.13913504634 
474	 3245.28706647873 
475	 3278.87607946486 
476	 3311.69906915035 
477	 3346.43391127523 
478	 3383.71274034507 
479	 3423.25358309281 
480	 3464.08140466172 
481	 3506.90476995291 
482	 3552.1582212501 
483	 3597.48227047399 
484	 3644.64188353827 
485	 3694.51000697408 
486	 3745.99745683752 
487	 3799.22831374698 
488	 3854.63519676924 
489	 3912.98516284894 
490	 3971.3585579571 
491	 4030.9854247417 
492	 4094.13806656651 
493	 4159.5210765379 
494	 4227.53796751606 
495	 4298.38090524225 
496	 4371.10425973775 
497	 4445.74375793465 
498	 4522.35253330906 
499	 4600.90372718481 
500	 4682.37571660124 
501	 4767.07522819157 
502	 4854.87779495325 
503	 4944.4325968627 
504	 5036.33586889113 
505	 5131.15302801201 
506	 5226.38654051609 
507	 5323.79819627866 
508	 5424.5322428595 
509	 5527.57056963715 
510	 5633.62241068741 
511	 5741.34993709661 
512	 5846.97964121837 
513	 5955.557760993 
514	 6067.64304810383 
515	 6181.98338834498 
516	 6298.02310788181 
517	 6414.66893028394 
518	 6531.62520163441 
519	 6652.32310778899 
520	 6773.1498569954 
521	 6892.77995495748 
522	 7014.92055201737 
523	 7136.13946947622 
524	 7257.13669918517 
525	 7381.75915407105 
526	 7507.58548703704 
527	 7632.93947111385 
528	 7756.88346507286 
529	 7884.17525111274 
530	 8011.90504065917 
531	 8137.79177439144 
532	 8265.34390134132 
533	 8393.77277922626 
534	 8522.75209887728 
535	 8652.97981851949 
536	 8782.80092118834 
537	 8911.66172081865 
538	 9039.66810066402 
539	 9168.70802333393 
540	 9297.32576729228 
541	 9423.51994317762 
542	 9548.71451409607 
543	 9673.70080445013 
544	 9798.49364978603 
545	 9921.40896068797 
546	 10041.1432384913 
547	 10158.0738101142 
548	 10275.0136591668 
549	 10389.916495582 
550	 10502.0345060359 
551	 10611.0873825423 
552	 10716.2107873622 
553	 10819.3270153403 
554	 10922.1047974742 
555	 11020.8379191869 
556	 11116.0034923048 
557	 11208.3840653611 
558	 11298.5518419195 
559	 11386.8347097052 
560	 11472.3215194671 
561	 11552.2847994514 
562	 11631.9038243139 
563	 11710.1946421034 
564	 11783.7480308709 
565	 11858.083427743 
566	 11929.4737320826 
567	 11994.7556264832 
568	 12063.089643473 
569	 12129.1226958703 
570	 12190.2243379929 
571	 12251.4534408197 
572	 12311.3571437968 
573	 12369.6417097975 
574	 12426.7056221101 
575	 12486.141678611 
576	 12548.1508530808 
577	 12612.3500814317 
578	 12686.7524359597 
579	 12777.5906828762 
580	 12889.952601238 
581	 13026.02576977 
582	 13188.3355121507 
583	 13377.5686459677 
584	 13593.8897792743 
585	 13821.1923497806 
586	 14046.5664437093 
587	 14259.2084149533 
588	 14405.094753967 
589	 14483.2828461812 
590	 14515.4987894811 
591	 14521.2587606658 
592	 14498.6577395885 
593	 14445.8697242745 
594	 14378.0789177952 
595	 14282.1463979652 
596	 14155.6851402315 
597	 14014.4438175709 
598	 13861.1420799349 
599	 13701.5793055208 
600	 13543.0759145058 
601	 13385.1119506592 
602	 13231.0734473442 
603	 13084.3350089045 
604	 12940.4699352681 
605	 12803.753279625 
606	 12679.3402607395 
607	 12573.1817188006 
608	 12476.3076530683 
609	 12382.2678675231 
610	 12285.7508314513 
611	 12204.3146201018 
612	 12134.4529538139 
613	 12061.027954286 
614	 12009.6627164927 
615	 11960.0662304096 
616	 11886.2108092272 
617	 11805.8823531159 
618	 11724.3129968813 
619	 11643.5142589081 
620	 11557.8868156187 
621	 11493.4236652106 
622	 11426.6149630962 
623	 11265.0839901442 
624	 11089.9136168053 
625	 10969.0402854387 
626	 10965.3676762111 
627	 11003.5762015818 
628	 11061.4993452222 
629	 11131.6295654501 
630	 11223.7168251125 
631	 11328.9592700595 
632	 11443.314480001 
633	 11575.19864564 
634	 11722.5231300398 
635	 11884.1769207114 
636	 12059.9793929222 
637	 12236.8564947552 
638	 12413.8500827806 
639	 12594.6330592772 
640	 12775.4530011573 
641	 12951.4108248019 
642	 13118.1000318022 
643	 13273.5084971094 
644	 13418.9174726714 
645	 13555.5939561023 
646	 13684.9869298296 
647	 13803.857912861 
648	 13912.5385538215 
649	 14013.8778819417 
650	 14106.2994944635 
651	 14190.9888351371 
652	 14269.8702463775 
653	 14343.519154989 
654	 14412.8556229025 
655	 14479.4806475636 
656	 14546.9435737017 
657	 14615.4750184554 
658	 14684.2581500769 
659	 14750.6579765054 
660	 14817.7752679043 
661	 14888.9587721705 
662	 14967.5075551558 
663	 15045.7916913136 
664	 15121.3740608047 
665	 15194.110526509 
666	 15267.7585472045 
667	 15345.5058790852 
668	 15428.3008160908 
669	 15513.1765714623 
670	 15596.5235639045 
671	 15679.9946562454 
672	 15770.5529490949 
673	 15863.8007157908 
674	 15957.0309971332 
675	 16048.3157573918 
676	 16140.7994491649 
677	 16232.7394704952 
678	 16322.9570029954 
679	 16414.4263411033 
680	 16508.1113708917 
681	 16603.8361996643 
682	 16699.9429878345 
683	 16794.4728756144 
684	 16889.7781225455 
685	 16990.7406644894 
686	 17089.5173737662 
687	 17188.324536993 
688	 17290.9024960767 
689	 17395.0677609334 
690	 17498.8798175662 
691	 17601.7735880898 
692	 17706.3441823251 
693	 17810.2611636302 
694	 17914.3413426014 
695	 18022.3696816254 
696	 18132.2782853842 
697	 18244.2215895995 
698	 18358.6671228727 
699	 18473.0922296853 
700	 18585.9851512604 
701	 18697.7328268113 
702	 18814.131523945 
703	 18932.2525233807 
704	 19050.4608741197 
705	 19169.0637000411 
706	 19286.4863185379 
707	 19401.3520805789 
708	 19512.8395454983 
709	 19628.7921212301 
710	 19744.4597167703 
711	 19855.1899069044 
712	 19970.5902361739 
713	 20082.8537857394 
714	 20189.9716403498 
715	 20303.2230066367 
716	 20413.2059517014 
717	 20520.0778223053 
718	 20630.0948759622 
719	 20737.152626842 
720	 20840.0669887703 
721	 20939.3863433306 
722	 21037.6386484022 
723	 21134.1354342704 
724	 21228.0571560506 
725	 21319.6850850527 
726	 21404.0997919007 
727	 21481.9511964839 
728	 21559.2001225777 
729	 21631.7989077581 
730	 21702.3300098967 
731	 21774.4527592409 
732	 21842.2378869157 
733	 21906.6326730905 
734	 21967.6601576611 
735	 22019.1826765463 
736	 22069.9036753626 
737	 22121.4331096105 
738	 22167.6281462301 
739	 22208.7388705741 
740	 22242.4842393513 
741	 22266.0612673601 
742	 22279.5062430962 
743	 22286.6277164657 
744	 22291.1257058425 
745	 22293.7778803309 
746	 22298.2182527361 
747	 22305.0816210155 
748	 22311.1316264846 
749	 22320.2703979989 
750	 22325.0218184391 
751	 22314.5360988606 
752	 22303.2356908356 
753	 22285.8740089896 
754	 22259.3578578086 
755	 22239.4278855735 
756	 22215.5320572253 
757	 22184.5828650415 
758	 22153.5208910656 
759	 22121.5737489052 
760	 22088.9298766597 
761	 22055.5339668714 
762	 22017.3655519916 
763	 21978.6738305872 
764	 21942.9062669227 
765	 21906.9494055844 
766	 21865.9180149718 
767	 21820.3242638871 
768	 21777.8072305183 
769	 21733.2684812846 
770	 21686.5874249746 
771	 21638.9225904383 
772	 21585.5094608134 
773	 21527.9723546159 
774	 21469.0772818725 
775	 21412.4555658897 
776	 21352.2203857403 
777	 21287.0875937222 
778	 21220.7554269471 
779	 21155.8421385716 
780	 21088.8051182184 
781	 21014.5809461185 
782	 20937.4756759215 
783	 20861.9600502192 
784	 20789.5843493454 
785	 20715.1164976863 
786	 20636.5112587544 
787	 20555.3064997059 
788	 20476.5082000787 
789	 20394.7342454952 
790	 20310.5895684476 
791	 20226.0656832494 
792	 20140.5481902442 
793	 20053.0107871894 
794	 19963.857852542 
795	 19877.1106599378 
796	 19786.7320829679 
797	 19693.1238976725 
798	 19600.6826597758 
799	 19508.2910441588 
800	 19414.7826199762 
801	 19318.4625841687 
802	 19215.5771867719 
803	 19111.6865115375 
804	 19009.0348115083 
805	 18904.6432961912 
806	 18800.7104966611 
807	 18695.837088882 
808	 18588.0965454966 
809	 18486.1286885023 
810	 18386.7180304744 
811	 18285.196674458 
812	 18177.4417980575 
813	 18069.2194204097 
814	 17961.1030593429 
815	 17849.1194983179 
816	 17740.9075345734 
817	 17631.7773285762 
818	 17516.5384489868 
819	 17406.4449472155 
820	 17299.2232072057 
821	 17193.875098281 
822	 17093.8358849809 
823	 16992.2049909871 
824	 16889.4290510871 
825	 16788.8343092649 
826	 16682.9460820586 
827	 16576.1296527714 
828	 16471.2283721797 
829	 16360.6722574292 
830	 16251.1674131879 
831	 16143.0359648908 
832	 16031.003901206 
833	 15921.7289352238 
834	 15814.6950765588 
835	 15707.9833837295 
836	 15602.7680559691 
837	 15499.6374592766 
838	 15397.4564483772 
839	 15292.1980344127 
840	 15189.1701593794 
841	 15086.7646338751 
842	 14981.264915881 
843	 14876.8627336428 
844	 14771.2879318569 
845	 14663.7436636278 
846	 14558.3296678131 
847	 14454.5995811534 
848	 14352.4911250693 
849	 14251.8413288946 
850	 14150.0483626467 
851	 14047.9436036724 
852	 13946.7758712452 
853	 13846.9116485376 
854	 13746.4545793453 
855	 13646.2757360532 
856	 13549.8349713914 
857	 13454.1135731008 
858	 13357.4221811823 
859	 13258.9056115461 
860	 13159.7273356713 
861	 13060.6654281146 
862	 12962.1506300619 
863	 12864.2446569625 
864	 12766.2640887073 
865	 12667.1107713977 
866	 12566.0198300077 
867	 12464.3074388047 
868	 12365.6062951298 
869	 12270.6601929215 
870	 12175.50245834 
871	 12080.3635323725 
872	 11984.8165302033 
873	 11888.3070506541 
874	 11789.339673878 
875	 11694.1543279605 
876	 11603.6153873336 
877	 11506.5559512276 
878	 11409.1958113826 
879	 11312.6831707907 
880	 11216.2717076006 
881	 11120.3610601465 
882	 11023.9494454807 
883	 10927.1914986969 
884	 10833.2781365364 
885	 10739.0910101084 
886	 10644.2317817166 
887	 10549.6646172747 
888	 10455.9313402452 
889	 10363.1212845904 
890	 10271.4508902199 
891	 10181.8618876055 
892	 10092.4294305893 
893	 10001.9435199384 
894	 9909.89065455783 
895	 9818.77412759398 
896	 9727.97833063108 
897	 9636.72196739592 
898	 9544.6756702977 
899	 9453.44782572413 
900	 9361.84665497524 
901	 9267.88941082222 
902	 9175.82375176004 
903	 9085.20283531707 
904	 8994.69372473239 
905	 8901.86101610608 
906	 8812.5691483159 
907	 8726.44019589006 
908	 8640.65023016439 
909	 8556.33682990438 
910	 8474.83650550027 
911	 8394.7169125895 
912	 8309.85522928458 
913	 8222.49686982989 
914	 8135.24973963444 
915	 8050.24741972988 
916	 7964.5154261811 
917	 7879.15849368082 
918	 7794.99430339417 
919	 7712.13325317065 
920	 7628.8306534904 
921	 7546.36400382547 
922	 7465.79091779616 
923	 7383.03470177941 
924	 7300.96819612274 
925	 7220.4856203096 
926	 7140.2833527396 
927	 7058.67995703403 
928	 6977.74210167604 
929	 6899.07745630454 
930	 6820.3328758554 
931	 6741.3223844032 
932	 6662.15056744837 
933	 6583.15314209791 
934	 6503.93825013814 
935	 6427.29596333178 
936	 6353.44753469815 
937	 6276.35794974389 
938	 6200.36879680118 
939	 6125.06129784091 
940	 6048.7860963145 
941	 5973.9264465086 
942	 5900.08719384065 
943	 5826.48322721891 
944	 5752.13795590392 
945	 5680.75042317145 
946	 5610.37199539629 
947	 5538.51048362584 
948	 5466.01769518731 
949	 5394.99845021067 
950	 5324.4925230664 
951	 5251.92471005165 
952	 5182.08938695982 
953	 5113.75233838655 
954	 5045.77811567621 
955	 4979.00332382147 
956	 4911.91287971651 
957	 4844.35429229947 
958	 4776.96163574489 
959	 4711.24869488403 
960	 4647.16599679978 
961	 4584.09337373644 
962	 4521.00108407148 
963	 4457.80676904837 
964	 4395.354727777 
965	 4333.95370340449 
966	 4272.20601335292 
967	 4210.89970513707 
968	 4150.00971386902 
969	 4089.30265393769 
970	 4029.18389998326 
971	 3969.45217514041 
972	 3910.04370869319 
973	 3851.05841888154 
974	 3792.10448142768 
975	 3733.76097985692 
976	 3676.26061208199 
977	 3618.62151656956 
978	 3560.88209962435 
979	 3503.75209401952 
980	 3447.68073417049 
981	 3389.9479733183 
982	 3334.23744563587 
983	 3280.56150328486 
984	 3225.67258029592 
985	 3173.11159948016 
986	 3120.99958996879 
987	 3068.05634255511 
988	 3015.72406755669 
989	 2964.23858513025 
990	 2913.45240367768 
991	 2863.12768786228 
992	 2813.49211879316 
993	 2763.77595274586 
994	 2713.72193355093 
995	 2663.6422157609 
996	 2615.18853990042 
997	 2567.35087897229 
998	 2519.45491325798 
999	 2471.61333142817 
1000	 2423.02420132834 
1001	 9754.31017862621 
1002	 9814.06065426719 
1003	 9873.59845256907 
1004	 9936.7420815012 
1005	 9996.76674328994 
1006	 10054.011102435 
1007	 10113.0808152431 
1008	 10172.0416896039 
1009	 10231.6187491487 
1010	 10291.0651152357 
1011	 10352.8471538788 
1012	 10415.4286524795 
1013	 10477.1742626168 
1014	 10537.2207908673 
1015	 10598.2887420251 
1016	 10658.041268728 
1017	 10717.6758585809 
1018	 10782.0167316191 
1019	 10849.1490320222 
1020	 10917.9264881405 
1021	 10991.4762244413 
1022	 11063.7783351998 
1023	 11137.0116522243 
1024	 11210.7015019557 
1025	 11283.6170574562 
1026	 11358.7253730952 
1027	 11436.2920098081 
1028	 11515.0452818725 
1029	 11597.2206934264 
1030	 11678.8423125686 
1031	 11760.9426863066 
1032	 11843.174894198 
1033	 11927.8509835112 
1034	 12013.1886804992 
1035	 12100.5816426512 
1036	 12192.2305536787 
1037	 12280.9324987713 
1038	 12369.6972646348 
1039	 12457.5179621963 
1040	 12544.2383929058 
1041	 12630.406410855 
1042	 12716.1781274748 
1043	 12803.3230871116 
1044	 12890.8583901531 
1045	 12977.223788462 
1046	 13060.7447651915 
1047	 13143.3811049718 
1048	 13223.9169867299 
1049	 13301.1589476243 
1050	 13377.9682972544 
1051	 13454.3366270355 
1052	 13528.793493472 
1053	 13601.5929347221 
1054	 13672.6778300329 
1055	 13741.3041756447 
1056	 13809.7770691763 
1057	 13876.9937829365 
1058	 13943.8390742298 
1059	 14006.3393548299 
1060	 14070.6331805178 
1061	 14135.1319533537 
1062	 14197.8189565714 
1063	 14261.7825246953 
1064	 14327.5116439506 
1065	 14392.580055421 
1066	 14456.0095680031 
1067	 14521.487496016 
1068	 14586.3509091928 
1069	 14656.245089757 
1070	 14728.6727868791 
1071	 14802.200809498 
1072	 14878.9072398039 
1073	 14957.8071896888 
1074	 15036.433632194 
1075	 15119.1297797313 
1076	 15205.1526729697 
1077	 15296.0874979406 
1078	 15391.9751003203 
1079	 15492.2993904487 
1080	 15596.0503818426 
1081	 15705.4919532963 
1082	 15816.5360576671 
1083	 15930.5810886977 
1084	 16047.4368922024 
1085	 16167.0349678728 
1086	 16290.6243800035 
1087	 16418.3476877694 
1088	 16547.3114727862 
1089	 16680.4847335373 
1090	 16814.0592027267 
1091	 16950.0335884503 
1092	 17086.0397002148 
1093	 17220.1788468441 
1094	 17353.5423563287 
1095	 17489.9858033531 
1096	 17628.3695294671 
1097	 17761.6384412258 
1098	 17896.5870531203 
1099	 18027.5093460976 
1100	 18150.8111949429 
1101	 18277.8931465482 
1102	 18408.1610095803 
1103	 18534.3398194844 
1104	 18658.9771104939 
1105	 18781.7575352481 
1106	 18900.6226540813 
1107	 19020.3965511698 
1108	 19138.8622318788 
1109	 19257.9189882337 
1110	 19377.0143655245 
1111	 19497.8981791232 
1112	 19614.3827150282 
1113	 19730.2071766709 
1114	 19842.8285602982 
1115	 19952.0124411857 
1116	 20060.1791466159 
1117	 20166.2319390349 
1118	 20271.4423095357 
1119	 20371.7689890083 
1120	 20476.6120740439 
1121	 20586.3254062677 
1122	 20690.3547776495 
1123	 20794.2532982637 
1124	 20896.4069217783 
1125	 20995.9743835778 
1126	 21088.7669443806 
1127	 21187.805457765 
1128	 21290.579201966 
1129	 21387.4276065103 
1130	 21483.6107926513 
1131	 21577.6782612164 
1132	 21665.632345336 
1133	 21758.6224282909 
1134	 21855.2677706234 
1135	 21947.5401113772 
1136	 22040.9924657322 
1137	 22130.4764021474 
1138	 22214.0566290484 
1139	 22299.6391226848 
1140	 22385.0456920445 
1141	 22469.1780954602 
1142	 22552.6648381855 
1143	 22636.0852813876 
1144	 22718.7361242742 
1145	 22798.7403877514 
1146	 22882.4781825292 
1147	 22969.2857722807 
1148	 23051.8598461403 
1149	 23134.3873304166 
1150	 23215.7854005932 
1151	 23292.6877494899 
1152	 23373.2362285139 
1153	 23457.0106095513 
1154	 23537.9434277707 
1155	 23618.8093874005 
1156	 23698.5724818383 
1157	 23774.4095481017 
1158	 23853.5475104682 
1159	 23934.8711083474 
1160	 24015.1370001786 
1161	 24095.6763253429 
1162	 24177.4989398115 
1163	 24258.783006466 
1164	 24340.6015021901 
1165	 24418.9875107252 
1166	 24496.2143827866 
1167	 24573.7402071715 
1168	 24648.6047116218 
1169	 24724.2182051088 
1170	 24801.4244139224 
1171	 24877.2370997064 
1172	 24950.2757811797 
1173	 25025.1094522916 
1174	 25101.4346477166 
1175	 25176.9583241171 
1176	 25254.3150970524 
1177	 25328.5856841715 
1178	 25401.7357288843 
1179	 25472.0295089139 
1180	 25543.4981626582 
1181	 25612.9933983828 
1182	 25683.4688935356 
1183	 25755.2447724419 
1184	 25825.7314802917 
1185	 25894.9756318489 
1186	 25964.6292885913 
1187	 26035.3867466071 
1188	 26103.2399453887 
1189	 26168.8084989156 
1190	 26235.7535577109 
1191	 26302.0746171796 
1192	 26368.1938289943 
1193	 26436.9548083701 
1194	 26501.6432436081 
1195	 26562.4844202263 
1196	 26624.1667929223 
1197	 26682.5336814467 
1198	 26743.6715806513 
1199	 26805.5331891955 
1200	 26869.4290090231 
1201	 26930.3515806849 
1202	 26991.8730735774 
1203	 27050.7517067957 
1204	 27108.6897578612 
1205	 27162.9992202253 
1206	 27214.7987013593 
1207	 27265.6673866921 
1208	 27311.9088805246 
1209	 27360.4527463397 
1210	 27411.8009450308 
1211	 27458.2031222266 
1212	 27499.9640419122 
1213	 27545.0258043472 
1214	 27590.3486841892 
1215	 27633.5892608851 
1216	 27677.728813259 
1217	 27722.0375374634 
1218	 27762.9008552809 
1219	 27800.7261018827 
1220	 27841.1590004985 
1221	 27883.1814784277 
1222	 27923.8354456219 
1223	 27965.0199384768 
1224	 28003.2293946493 
1225	 28039.9007286844 
1226	 28075.8737500807 
1227	 28110.3557178288 
1228	 28143.8460173078 
1229	 28174.8189831846 
1230	 28207.8616145308 
1231	 28243.3016090528 
1232	 28273.9438188428 
1233	 28304.4646558688 
1234	 28332.9179946449 
1235	 28358.0694783091 
1236	 28378.6402296146 
1237	 28402.0522829415 
1238	 28428.4858043547 
1239	 28455.3305296079 
1240	 28481.9891685993 
1241	 28509.3655393196 
1242	 28540.0582901665 
1243	 28564.0863645368 
1244	 28585.8026822059 
1245	 28607.2964939354 
1246	 28622.7155974608 
1247	 28643.9248536325 
1248	 28669.8312429676 
1249	 28690.5714969552 
1250	 28710.4493768916 
1251	 28730.6062322385 
1252	 28747.175354064 
1253	 28766.289857046 
1254	 28788.3757431805 
1255	 28809.1522644959 
1256	 28831.1127753424 
1257	 28848.9112584504 
1258	 28867.7340629702 
1259	 28886.9910658661 
1260	 28906.5852663455 
1261	 28929.7242219715 
1262	 28955.0785796823 
1263	 28981.4376660257 
1264	 29007.9205044641 
1265	 29033.8064461699 
1266	 29064.4710596511 
1267	 29097.5924336877 
1268	 29130.8109467855 
1269	 29167.9924567258 
1270	 29204.2747364695 
1271	 29238.2649028299 
1272	 29276.4300959302 
1273	 29320.1939562333 
1274	 29358.6976875287 
1275	 29397.4112139117 
1276	 29435.0100982877 
1277	 29471.8469318466 
1278	 29504.3614897884 
1279	 29537.1114820743 
1280	 29564.376263964 
1281	 29585.1677309048 
1282	 29599.4909254816 
1283	 29609.3907342096 
1284	 29613.3185249424 
1285	 29612.9000660332 
1286	 29603.5055452987 
1287	 29583.6198193122 
1288	 29555.0430907775 
1289	 29519.8035962554 
1290	 29474.0950836305 
1291	 29421.9117716194 
1292	 29363.9103565955 
1293	 29297.1183781818 
1294	 29217.9075026476 
1295	 29139.2867461762 
1296	 29055.5441604138 
1297	 28967.5331625 
1298	 28875.5764506058 
1299	 28781.211825479 
1300	 28680.6998603845 
1301	 28580.5990344807 
1302	 28478.7658056227 
1303	 28375.6372545744 
1304	 28271.472141538 
1305	 28169.7722463099 
1306	 28068.6967353742 
1307	 27967.4364821288 
1308	 27871.1188664679 
1309	 27775.9880934883 
1310	 27682.1938768454 
1311	 27593.8336017776 
1312	 27507.1013558087 
1313	 27419.3383889823 
1314	 27341.3194808909 
1315	 27269.0340789635 
1316	 27200.3792529032 
1317	 27137.1888819472 
1318	 27079.9755609567 
1319	 27026.6690658523 
1320	 26980.1622586456 
1321	 26943.4527682927 
1322	 26905.9457685163 
1323	 26868.7296666126 
1324	 26839.6789224678 
1325	 26815.8462977999 
1326	 26795.3358519999 
1327	 26780.5601487971 
1328	 26771.9611345579 
1329	 26764.3357135862 
1330	 26755.6463258797 
1331	 26753.740935373 
1332	 26756.3859429582 
1333	 26759.3383038592 
1334	 26768.3335328838 
1335	 26778.5334374917 
1336	 26786.4907897027 
1337	 26796.7803706665 
1338	 26811.8018789212 
1339	 26831.4395845339 
1340	 26855.3943364668 
1341	 26881.8134313335 
1342	 26915.6775708901 
1343	 26944.61070304 
1344	 26971.7362188845 
1345	 27002.984734784 
1346	 27034.7334586017 
1347	 27067.9001525661 
1348	 27105.8558334371 
1349	 27141.0651381413 
1350	 27173.3203814611 
1351	 27209.4180869228 
1352	 27246.064909862 
1353	 27285.1814965641 
1354	 27325.6991069562 
1355	 27371.0339191478 
1356	 27418.079499177 
1357	 27464.7641027925 
1358	 27515.6821660603 
1359	 27570.7246908518 
1360	 27630.7477101932 
1361	 27699.4671538195 
1362	 27773.2806306649 
1363	 27848.8965938983 
1364	 27928.3339818281 
1365	 28012.7214904601 
1366	 28100.1514437048 
1367	 28193.1982708441 
1368	 28286.1791771466 
1369	 28384.7410140781 
1370	 28476.2853839612 
1371	 28568.9280690667 
1372	 28654.5997882657 
1373	 28735.7994363939 
1374	 28812.0917071284 
1375	 28883.1907396094 
1376	 28950.8239840528 
1377	 29010.0141004569 
1378	 29073.6280047862 
1379	 29132.2833207693 
1380	 29199.1730697732 
1381	 29268.2466631162 
1382	 29344.3424818583 
1383	 29427.4563393096 
1384	 29512.9976760705 
1385	 29603.2257714136 
1386	 29696.0992135308 
1387	 29786.0680321572 
1388	 29876.6294800004 
1389	 29969.6719522501 
1390	 30060.3924784777 
1391	 30151.7032692538 
1392	 30242.0745957552 
1393	 30327.078697777 
1394	 30410.2593564166 
1395	 30491.3531140047 
1396	 30573.430710467 
1397	 30658.6138589463 
1398	 30743.7658927777 
1399	 30829.8496244521 
1400	 30916.904743971 
1401	 31006.2040965361 
1402	 31097.0544539722 
1403	 31187.2194252652 
1404	 31279.1868912345 
1405	 31371.8575532359 
1406	 31461.6768422181 
1407	 31557.4482113133 
1408	 31660.0425003114 
1409	 31756.7754260425 
1410	 31856.3517615502 
1411	 31951.6082821846 
1412	 32037.9093125011 
1413	 32130.9249725104 
1414	 32228.4855095382 
1415	 32320.3341699205 
1416	 32411.1088321471 
1417	 32504.647081372 
1418	 32591.8856538053 
1419	 32674.194791471 
1420	 32759.4664803389 
1421	 32843.7029471438 
1422	 32924.1431216672 
1423	 33004.5890330673 
1424	 33083.1636989133 
1425	 33158.400653024 
1426	 33231.6694251558 
1427	 33302.568604948 
1428	 33370.2232035349 
1429	 33436.5584824276 
1430	 33500.2717278297 
1431	 33562.5106632492 
1432	 33626.9043049058 
1433	 33689.7069412803 
1434	 33748.1645655484 
1435	 33803.97689679 
1436	 33860.6012741303 
1437	 33913.978829319 
1438	 33966.8524528979 
1439	 34023.3670772665 
1440	 34073.7844157423 
1441	 34119.4420463455 
1442	 34161.5912560425 
1443	 34199.3832911303 
1444	 34237.5813284736 
1445	 34272.7810697545 
1446	 34308.2522986787 
1447	 34345.5579337734 
1448	 34377.5344817887 
1449	 34406.1438379383 
1450	 34433.0425927905 
1451	 34456.6123201023 
1452	 34479.9895831547 
1453	 34502.3843960141 
1454	 34521.5106637983 
1455	 34537.8365657488 
1456	 34553.7938336439 
1457	 34570.5146629568 
1458	 34584.4922121797 
1459	 34596.24777492 
1460	 34605.9045426623 
1461	 34609.7924666691 
1462	 34611.7601091595 
1463	 34614.7825810671 
1464	 34616.9510769958 
1465	 34620.5850977881 
1466	 34623.4161257268 
1467	 34622.730325865 
1468	 34624.216191506 
1469	 34622.545724979 
1470	 34615.8034421249 
1471	 34612.2911259126 
1472	 34608.2335349141 
1473	 34601.2725896575 
1474	 34594.7548543495 
1475	 34586.6854784351 
1476	 34576.0448662698 
1477	 34563.401665144 
1478	 34548.1098533223 
1479	 34533.7623738601 
1480	 34518.2923254842 
1481	 34500.3675716301 
1482	 34483.2808470522 
1483	 34462.5624651154 
1484	 34436.5285370796 
1485	 34413.2272984423 
1486	 34390.4783762801 
1487	 34365.1998387442 
1488	 34339.4145301539 
1489	 34312.8460208522 
1490	 34283.5042284134 
1491	 34255.0400955278 
1492	 34225.3384312983 
1493	 34198.9464123807 
1494	 34175.9521388912 
1495	 34149.1098173856 
1496	 34124.4478647899 
1497	 34095.1630498338 
1498	 34057.9137470832 
1499	 34026.1907285694 
1500	 33997.362455924 
1501	 33965.5740422998 
1502	 33935.0180830589 
1503	 33902.3398293606 
1504	 33866.7238448752 
1505	 33830.501969121 
1506	 33793.8521234856 
1507	 33756.5848804531 
1508	 33718.0714175297 
1509	 33677.4659848031 
1510	 33639.0285554136 
1511	 33600.9950929033 
1512	 33561.4550794179 
1513	 33520.8610601443 
1514	 33478.3985322708 
1515	 33436.7976750802 
1516	 33399.990719844 
1517	 33362.6436028878 
1518	 33323.3100871001 
1519	 33283.0429732551 
1520	 33238.2177231934 
1521	 33192.6271767685 
1522	 33148.6633950933 
1523	 33106.1010344891 
1524	 33064.4927360066 
1525	 33022.5805691359 
1526	 32979.9975542789 
1527	 32936.7639181831 
1528	 32894.6490612552 
1529	 32851.6034566904 
1530	 32806.4647746759 
1531	 32761.4465984531 
1532	 32716.6184486527 
1533	 32669.4245210578 
1534	 32623.2522813628 
1535	 32578.2119530279 
1536	 32528.9543761618 
1537	 32480.6934134936 
1538	 32434.0326859472 
1539	 32388.5226400646 
1540	 32342.1697557711 
1541	 32296.5861872335 
1542	 32250.3714924032 
1543	 32205.0156147694 
1544	 32155.7376068967 
1545	 32105.1765448372 
1546	 32054.192728721 
1547	 31999.0270043012 
1548	 31946.87995718 
1549	 31896.568925255 
1550	 31844.9875202399 
1551	 31792.2759993101 
1552	 31741.9727492328 
1553	 31692.8229567153 
1554	 31642.7803502774 
1555	 31594.8217715926 
1556	 31544.4698472994 
1557	 31491.6063200242 
1558	 31440.1631714306 
1559	 31389.0077825943 
1560	 31337.5289525662 
1561	 31284.8834769967 
1562	 31235.5290193256 
1563	 31188.6215807736 
1564	 31138.9917230734 
1565	 31091.3584849957 
1566	 31040.0360866829 
1567	 30984.4460973183 
1568	 30930.7069843062 
1569	 30876.6119411325 
1570	 30822.7967539765 
1571	 30769.1529252253 
1572	 30715.2476691152 
1573	 30660.9725220295 
1574	 30606.7146078773 
1575	 30553.686296884 
1576	 30498.5230972093 
1577	 30440.9616975846 
1578	 30386.3605055021 
1579	 30330.7291948525 
1580	 30276.6304835281 
1581	 30226.7884480958 
1582	 30173.7892307954 
1583	 30119.1513518243 
1584	 30066.5111276527 
1585	 30012.2365446036 
1586	 29960.6971314669 
1587	 29913.3044896128 
1588	 29862.0729743849 
1589	 29812.0026391577 
1590	 29759.0333419288 
1591	 29701.3194227877 
1592	 29645.597334657 
1593	 29588.8490430501 
1594	 29533.4815839019 
1595	 29479.8622240868 
1596	 29425.3968754635 
1597	 29369.8518293579 
1598	 29316.2662600573 
1599	 29265.6798148008 
1600	 29211.2537492359 
1601	 29154.6925899222 
1602	 29100.7165603378 
1603	 29046.027455397 
1604	 28989.9872528933 
1605	 28936.154445964 
1606	 28881.2449329437 
1607	 28824.7164687102 
1608	 28766.0199790785 
1609	 28706.9707252444 
1610	 28647.5554146926 
1611	 28582.7385434712 
1612	 28522.6158486137 
1613	 28466.7470940371 
1614	 28408.7048909016 
1615	 28352.4398290395 
1616	 28293.7922118887 
1617	 28232.1288125673 
1618	 28171.7647693634 
1619	 28112.2309499956 
1620	 28050.9616690277 
1621	 27987.6628256236 
1622	 27927.0376073068 
1623	 27867.3798651189 
1624	 27805.500200831 
1625	 27744.2822717331 
1626	 27683.6632834883 
1627	 27620.396119663 
1628	 27559.317448147 
1629	 27502.298717838 
1630	 27441.9524552788 
1631	 27379.8305053467 
1632	 27318.0781497241 
1633	 27254.0638905311 
1634	 27192.6612292716 
1635	 27134.5153893565 
1636	 27072.9467443118 
1637	 27011.0316707571 
1638	 26948.3960963417 
1639	 26881.8230834169 
1640	 26818.0297033541 
1641	 26756.7719443365 
1642	 26693.6496793909 
1643	 26631.400778189 
1644	 26567.2709423429 
1645	 26500.1741343143 
1646	 26434.7059215418 
1647	 26369.004911645 
1648	 26303.7866921304 
1649	 26239.7139330074 
1650	 26175.3144765338 
1651	 26111.7911786676 
1652	 26045.7812078222 
1653	 25979.6457320256 
1654	 25911.5125967342 
1655	 25840.6030215845 
1656	 25769.6943883697 
1657	 25697.9245788934 
1658	 25625.1488993306 
1659	 25551.7678469186 
1660	 25477.1911240106 
1661	 25399.925743501 
1662	 25325.034113631 
1663	 25250.5094044722 
1664	 25176.0865883529 
1665	 25102.0432288765 
1666	 25029.7721550157 
1667	 24957.4972523753 
1668	 24886.7850851351 
1669	 24818.1245628764 
1670	 24750.6181526729 
1671	 24683.3374293217 
1672	 24618.4593076185 
1673	 24555.0140539974 
1674	 24494.7837488484 
1675	 24440.1569011295 
1676	 24379.5218114491 
1677	 24318.5574692076 
1678	 24257.369227566 
1679	 24192.4553716391 
1680	 24128.6260116887 
1681	 24067.9894134685 
1682	 24002.9009065223 
1683	 23934.7983206164 
1684	 23865.5824262688 
1685	 23793.6444633918 
1686	 23723.6503531963 
1687	 23650.4592336813 
1688	 23583.8015884825 
1689	 23521.9403101134 
1690	 23457.7455335404 
1691	 23395.836693127 
1692	 23332.9178597716 
1693	 23268.2777613807 
1694	 23205.5156054969 
1695	 23145.3486255774 
1696	 23081.7226436591 
1697	 23015.8708920992 
1698	 22953.0654228965 
1699	 22889.310570616 
1700	 22828.5633423205 
1701	 22770.8344137856 
1702	 22712.5317963587 
1703	 22655.5286406796 
1704	 22596.9037318937 
1705	 22538.5958707536 
1706	 22479.3602272521 
1707	 22418.9371850496 
1708	 22357.648098421 
1709	 22296.7583373872 
1710	 22237.6011340712 
1711	 22175.451590048 
1712	 22112.7448099225 
1713	 22053.9816076032 
1714	 21994.9153170605 
1715	 21933.8425984789 
1716	 21869.1867775264 
1717	 21805.2728237435 
1718	 21738.3653908784 
1719	 21671.6001138257 
1720	 21606.8924544952 
1721	 21540.8539416273 
1722	 21470.2866361041 
1723	 21403.6554323588 
1724	 21340.846421036 
1725	 21275.8397724832 
1726	 21212.8587199597 
1727	 21147.2346556916 
1728	 21077.0576911692 
1729	 21009.7783791587 
1730	 20943.7819985542 
1731	 20877.2939067596 
1732	 20810.3343799561 
1733	 20745.8915150971 
1734	 20682.3435308429 
1735	 20618.6130497505 
1736	 20558.2868471359 
1737	 20494.9094613596 
1738	 20428.9994188159 
1739	 20364.0769497331 
1740	 20297.3345059386 
1741	 20234.2246693507 
1742	 20172.7870725838 
1743	 20111.9331200984 
1744	 20053.1270600967 
1745	 19994.6297213989 
1746	 19936.5989715053 
1747	 19879.2908551272 
1748	 19824.8792225223 
1749	 19766.0959944729 
1750	 19705.4939335875 
1751	 19645.5432023524 
1752	 19582.3283600785 
1753	 19523.9878936453 
1754	 19469.0833335493 
1755	 19411.1349255253 
1756	 19352.1517517358 
1757	 19288.7823671614 
1758	 19225.8177178193 
1759	 19159.938677645 
1760	 19094.9728436636 
1761	 19031.7700808837 
1762	 18966.2455911687 
1763	 18903.4105246128 
1764	 18839.0077867203 
1765	 18770.9586385679 
1766	 18702.8277823863 
1767	 18632.5118484835 
1768	 18563.0586221258 
1769	 18496.426486718 
1770	 18428.5525606092 
1771	 18362.9110192859 
1772	 18296.8539688544 
1773	 18231.4933475016 
1774	 18164.791149664 
1775	 18096.5726995221 
1776	 18029.0370672228 
1777	 17962.1149509128 
1778	 17892.6817147765 
1779	 17823.1551227839 
1780	 17751.7723885007 
1781	 17675.6440310953 
1782	 17603.8156834508 
1783	 17533.9766470052 
1784	 17463.4203558025 
1785	 17393.2610389229 
1786	 17323.7275494091 
1787	 17255.4401985078 
1788	 17184.853428026 
1789	 17114.8418107129 
1790	 17046.6580785024 
1791	 16972.8221713564 
1792	 16901.9945161057 
1793	 16831.8305844211 
1794	 16756.5848463076 
1795	 16680.0570161084 
1796	 16605.6814191082 
1797	 16529.4852167744 
1798	 16453.5376915989 
1799	 16380.8736261681 
1800	 16307.6050127779 
1801	 25959.3612203606 
1802	 26199.3320008279 
1803	 26435.1483457918 
1804	 26663.986544685 
1805	 26886.5607782761 
1806	 27096.0825979633 
1807	 27290.3939759436 
1808	 27476.4256034264 
1809	 27646.806691544 
1810	 27808.609808902 
1811	 27975.3929500938 
1812	 28141.1702536135 
1813	 28292.5244904299 
1814	 28433.5250343554 
1815	 28583.5002331312 
1816	 28720.2078999307 
1817	 28841.520208114 
1818	 28966.0835527336 
1819	 29090.0091899631 
1820	 29209.9433298117 
1821	 29326.35650584 
1822	 29438.112835861 
1823	 29557.4133762297 
1824	 29682.1384223811 
1825	 29794.84869133 
1826	 29898.0703305744 
1827	 30007.7441616901 
1828	 30111.7428546428 
1829	 30203.9869431303 
1830	 30300.5556830429 
1831	 30402.8961594122 
1832	 30502.5285990176 
1833	 30589.7347815048 
1834	 30677.526549292 
1835	 30773.3738222603 
1836	 30862.4047341788 
1837	 30945.8800068027 
1838	 31049.5748052264 
1839	 31153.6785551117 
1840	 31261.9667184579 
1841	 31366.9836388612 
1842	 31478.9265833971 
1843	 31586.6257642227 
1844	 31695.5248493652 
1845	 31801.6963171208 
1846	 31900.6257209394 
1847	 32000.4801465981 
1848	 32098.4469862301 
1849	 32185.2723746039 
1850	 32279.0286817359 
1851	 32386.0375895493 
1852	 32472.1137374157 
1853	 32552.2479383121 
1854	 32644.8114499429 
1855	 32722.1460227728 
1856	 32801.1109946447 
1857	 32883.5267148473 
1858	 32978.2413699577 
1859	 33042.0511533977 
1860	 33089.8662930636 
1861	 33146.5713410181 
1862	 33195.3932191934 
1863	 33229.9614178375 
1864	 33270.4287452885 
1865	 33312.7044068952 
1866	 33352.8788734223 
1867	 33379.5790616075 
1868	 33414.398111609 
1869	 33451.3242933451 
1870	 33499.5393147941 
1871	 33548.8963801633 
1872	 33600.222826322 
1873	 33672.9657495836 
1874	 33754.5694160728 
1875	 33837.968679924 
1876	 33930.5447610982 
1877	 34012.3531807505 
1878	 34096.6770168708 
1879	 34175.1385510126 
1880	 34251.574294888 
1881	 34314.1069710872 
1882	 34369.1342543902 
1883	 34421.7059653428 
1884	 34466.6717703943 
1885	 34502.3132370023 
1886	 34539.1797811956 
1887	 34581.9263431639 
1888	 34610.174625362 
1889	 34625.4545766424 
1890	 34644.4027599263 
1891	 34663.7611584585 
1892	 34672.718601532 
1893	 34671.9645196605 
1894	 34674.2420764394 
1895	 34675.6239047537 
1896	 34672.4191255523 
1897	 34668.8658510029 
1898	 34665.0770872773 
1899	 34666.0724239205 
1900	 34659.3108096227 
1901	 34663.7906412232 
1902	 34689.4280759689 
1903	 34699.2078716108 
1904	 34698.8539682165 
1905	 34707.7787976712 
1906	 34716.2865339021 
1907	 34716.2622533651 
1908	 34730.4212787112 
1909	 34761.9118395652 
1910	 34776.1469854197 
1911	 34790.2714467842 
1912	 34798.4168214241 
1913	 34789.6535820961 
1914	 34793.5153452528 
1915	 34806.2505753026 
1916	 34811.3431692564 
1917	 34815.4676098318 
1918	 34820.1438695892 
1919	 34827.14160957 
1920	 34827.8322931403 
1921	 34836.7602325192 
1922	 34859.5279474167 
1923	 34869.8579787052 
1924	 34868.8937487836 
1925	 34879.2442827442 
1926	 34891.023156383 
1927	 34906.5467145519 
1928	 34916.8343972173 
1929	 34933.2285650827 
1930	 34945.0600386346 
1931	 34952.9815706097 
1932	 34955.3351939597 
1933	 34950.9331265037 
1934	 34956.4982392914 
1935	 34965.6539852779 
1936	 34965.4712397297 
1937	 34964.2041378161 
1938	 34969.782810052 
1939	 34971.6175979238 
1940	 34962.1685919452 
1941	 34958.1094730784 
1942	 34965.040827348 
1943	 34962.1237118798 
1944	 34941.9387764782 
1945	 34938.3119489846 
1946	 34948.9692107974 
1947	 34948.5816736022 
1948	 34946.8608962919 
1949	 34948.1965272436 
1950	 34947.5899058807 
1951	 34940.8403546949 
1952	 34934.7932360465 
1953	 34929.2299023458 
1954	 34927.6280430148 
1955	 34926.3528952642 
1956	 34921.3709059126 
1957	 34925.5058782666 
1958	 34919.3950165926 
1959	 34906.4099335514 
1960	 34883.243074804 
1961	 34866.4416299068 
1962	 34844.3849164619 
1963	 34833.2369828677 
1964	 34833.5742719194 
1965	 34818.7750209063 
1966	 34808.2085057482 
1967	 34786.0153031254 
1968	 34746.9060170426 
1969	 34711.4870576048 
1970	 34665.7078272554 
1971	 34631.3882659275 
1972	 34601.0645234391 
1973	 34575.9306276734 
1974	 34542.9768159479 
1975	 34516.1847189468 
1976	 34481.4970554425 
1977	 34430.8395698832 
1978	 34395.3134089465 
1979	 34372.5522542922 
1980	 34338.4708328638 
1981	 34301.1214270609 
1982	 34266.6512697534 
1983	 34231.1398626016 
1984	 34194.5712746658 
1985	 34146.7617600751 
1986	 34091.9732932895 
1987	 34047.0097088691 
1988	 33998.1008777055 
1989	 33947.2963958707 
1990	 33906.0852582369 
1991	 33859.3741380439 
1992	 33791.1916774295 
1993	 33742.0551938292 
1994	 33707.148596716 
1995	 33677.1298024681 
1996	 33632.0779338879 
1997	 33585.0011074843 
1998	 33541.8421149082 
1999	 33490.3382386642 
2000	 33442.6461677329 
2001	 33407.9145601563 
2002	 33360.4710769067 
2003	 33302.40358952 
2004	 33246.4009119661 
2005	 33176.5038488757 
2006	 33124.9527495284 
2007	 33079.869436902 
2008	 33045.1725998917 
2009	 33000.6091972146 
2010	 32967.7435926202 
2011	 32920.2355563122 
2012	 32854.6886977666 
2013	 32803.8945312247 
2014	 32764.0812324861 
2015	 32711.6547859033 
2016	 32650.3293791373 
2017	 32597.2613332974 
2018	 32544.5588673641 
2019	 32488.7771619505 
2020	 32436.263804386 
2021	 32385.8099378637 
2022	 32334.7405083209 
2023	 32279.0384345146 
2024	 32223.2284117962 
2025	 32171.4924142278 
2026	 32116.5476881113 
2027	 32049.8846549612 
2028	 31995.4146646505 
2029	 31953.0082265225 
2030	 31903.6450192193 
2031	 31858.1757621579 
2032	 31804.0705133844 
2033	 31749.1094393556 
2034	 31698.415919035 
2035	 31645.6216518734 
2036	 31597.7503619225 
2037	 31538.8798987625 
2038	 31464.2524284055 
2039	 31411.4355751339 
2040	 31367.2966548712 
2041	 31315.2933029845 
2042	 31277.0453468976 
2043	 31227.8670975802 
2044	 31162.7885043219 
2045	 31103.9815991087 
2046	 31050.3828098843 
2047	 30993.6315689198 
2048	 30928.9077753597 
2049	 30858.155443093 
2050	 30800.0688076293 
2051	 30745.9219860528 
2052	 30690.9144817128 
2053	 30650.9287720318 
2054	 30593.4059842174 
2055	 30516.4949228611 
2056	 30455.2767214577 
2057	 30400.5911691241 
2058	 30339.9852999486 
2059	 30281.6505395239 
2060	 30225.734535067 
2061	 30170.8784639003 
2062	 30101.5788871406 
2063	 30034.9913318422 
2064	 29972.4905863149 
2065	 29906.05325252 
2066	 29824.8437306715 
2067	 29762.5906972723 
2068	 29714.3833183119 
2069	 29654.6621024388 
2070	 29603.8005482527 
2071	 29542.7399066658 
2072	 29470.4107248051 
2073	 29398.0082835096 
2074	 29328.9535587124 
2075	 29245.9462610661 
2076	 29171.9422337598 
2077	 29114.1847965717 
2078	 29050.3956567722 
2079	 28995.6334572004 
2080	 28930.2724157163 
2081	 28857.2365154203 
2082	 28786.2070465892 
2083	 28717.8029489528 
2084	 28642.7869464209 
2085	 28553.608210939 
2086	 28481.6171214365 
2087	 28417.1774491272 
2088	 28347.8003646704 
2089	 28281.534269615 
2090	 28224.8237811773 
2091	 28156.0139034741 
2092	 28075.9903991215 
2093	 28009.4768446176 
2094	 27957.4462955542 
2095	 27889.1522976999 
2096	 27811.4162495939 
2097	 27745.2469234276 
2098	 27682.2275758429 
2099	 27610.3448003667 
2100	 27538.8227358664 
2101	 27472.9207991231 
2102	 27409.3551244223 
2103	 27327.6468240624 
2104	 27255.5707037754 
2105	 27191.9026432484 
2106	 27099.1405875814 
2107	 27016.4044479648 
2108	 26946.2090009881 
2109	 26885.5431313004 
2110	 26815.7419368638 
2111	 26758.2585470513 
2112	 26688.5452344082 
2113	 26608.1324024741 
2114	 26531.2443896177 
2115	 26443.4651402524 
2116	 26370.5593801874 
2117	 26304.5163990034 
2118	 26240.9513359845 
2119	 26173.7714426852 
2120	 26114.7090368587 
2121	 26033.8455694998 
2122	 25936.0424903668 
2123	 25858.6586910322 
2124	 25787.2195424011 
2125	 25715.8709182171 
2126	 25658.9015362324 
2127	 25588.9355887526 
2128	 25507.3400841169 
2129	 25434.9577132563 
2130	 25361.132065766 
2131	 25291.6842347939 
2132	 25232.6271882449 
2133	 25167.3810239759 
2134	 25102.5224612648 
2135	 25034.3946873481 
2136	 24958.5911386004 
2137	 24880.0153195614 
2138	 24805.0674568227 
2139	 24742.5919435734 
2140	 24672.7885746535 
2141	 24594.1035080387 
2142	 24521.4078577526 
2143	 24443.0797927559 
2144	 24366.5235298254 
2145	 24295.4948299686 
2146	 24227.0149512473 
2147	 24155.6230699624 
2148	 24083.2476789551 
2149	 24018.5638407547 
2150	 23948.3779573915 
2151	 23871.7424381029 
2152	 23797.5603419341 
2153	 23730.3448972969 
2154	 23651.9616767129 
2155	 23563.0294876405 
2156	 23485.4763643981 
2157	 23406.697193474 
2158	 23322.8727493221 
2159	 23244.7536566044 
2160	 23177.904757992 
2161	 23097.5629262765 
2162	 23005.9970707707 
2163	 22926.3647994447 
2164	 22853.2346678173 
2165	 22769.9539371443 
2166	 22687.0731310693 
2167	 22605.77946712 
2168	 22516.0698206651 
2169	 22425.8373829348 
2170	 22340.3265300523 
2171	 22254.259887758 
2172	 22157.6193915429 
2173	 22063.6435947204 
2174	 21966.0887249263 
2175	 21863.1998036779 
2176	 21755.2291232896 
2177	 21648.4370389744 
2178	 21543.6539434577 
2179	 21443.7153963982 
2180	 21335.4390599364 
2181	 21221.7506892584 
2182	 21112.5216398415 
2183	 21002.089027062 
2184	 20889.222756229 
2185	 20782.2352293131 
2186	 20667.9388729759 
2187	 20545.1507170902 
2188	 20422.1849803761 
2189	 20296.7428546894 
2190	 20170.9052385742 
2191	 20044.4926639364 
2192	 19923.2428680375 
2193	 19794.025436169 
2194	 19666.0137794781 
2195	 19542.3613757763 
2196	 19410.5576873777 
2197	 19282.3179068344 
2198	 19162.8236138672 
2199	 19030.3181076309 
2200	 18880.5375649433 
2201	 18757.1306995113 
2202	 18639.4051461922 
2203	 18524.8703405168 
2204	 18429.4333641761 
2205	 18324.3815305379 
2206	 18215.2572634905 
2207	 18106.7468722624 
2208	 17995.8677439155 
2209	 17892.1693335241 
2210	 17790.8597646671 
2211	 17688.3520972055 
2212	 17593.9902530009 
2213	 17503.6659496222 
2214	 17412.3938141482 
2215	 17323.8941109739 
2216	 17234.1961168469 
2217	 17149.8726748935 
2218	 17066.7002920816 
2219	 16980.5302983451 
2220	 16904.6682360419 
2221	 16840.0760051155 
2222	 16764.9052942919 
2223	 16693.5340821132 
2224	 16615.9593364307 
2225	 16521.7920033881 
2226	 16446.6463260496 
2227	 16380.0440140581 
2228	 16310.9402489108 
2229	 16260.4766433316 
2230	 16190.6887015894 
2231	 16101.6274926262 
2232	 16026.1099483397 
2233	 15948.3861542695 
2234	 15872.1255803615 
2235	 15807.1162412126 
2236	 15736.4618279822 
2237	 15655.5276807027 
2238	 15576.9654092034 
2239	 15503.3806466174 
2240	 15425.3235155326 
2241	 15344.0353173468 
2242	 15263.1310299596 
2243	 15182.6705476929 
2244	 15095.3851537846 
2245	 15020.4073738723 
2246	 14958.8471530972 
2247	 14880.9714962503 
2248	 14799.398040762 
2249	 14719.98493132 
2250	 14631.6033700747 
2251	 14548.7654356185 
2252	 14467.9303876851 
2253	 14392.9152293604 
2254	 14328.114188908 
2255	 14249.5197343643 
2256	 14168.3398575696 
2257	 14091.1992281329 
2258	 13998.0454267628 
2259	 13915.5872551229 
2260	 13849.422026362 
2261	 13781.9474770936 
2262	 13676.4095259725 
2263	 13586.5871586561 
2264	 13513.6906225413 
2265	 13422.2325051752 
2266	 13336.9327005832 
2267	 13260.7270129267 
2268	 13174.7231411796 
2269	 13062.3303218455 
2270	 12980.9039932186 
2271	 12925.8458300825 
2272	 12842.5831773021 
2273	 12757.3155370869 
2274	 12664.2543584106 
2275	 12547.4451188975 
2276	 12453.4598968616 
2277	 12371.5460146895 
2278	 12280.4411775293 
2279	 12193.3534009294 
2280	 12104.2432002021 
2281	 12006.4533298257 
2282	 11914.5602821068 
2283	 11832.1866992884 
2284	 11741.369399993 
2285	 11645.5563950917 
2286	 11551.094145528 
2287	 11455.0849260029 
2288	 11356.2056762912 
2289	 11250.124146206 
2290	 11155.4239626258 
2291	 11071.1089060612 
2292	 10976.3447072072 
2293	 10882.614279831 
2294	 10786.7550458351 
2295	 10693.8546274039 
2296	 10599.7644381193 
2297	 10521.2880917414 
2298	 10446.0498391164 
2299	 10351.1786239717 
2300	 10235.4581840291 
2301	 10147.9624526736 
2302	 10067.6502534721 
2303	 9975.31026686919 
2304	 9892.72105613087 
2305	 9804.06285378347 
2306	 9698.4035212766 
2307	 9602.44501431059 
2308	 9517.92955267388 
2309	 9427.92282203056 
2310	 9330.98624654951 
2311	 9239.17434693305 
2312	 9154.40087381795 
2313	 9063.63845833493 
2314	 8965.72464019713 
2315	 8874.16244534901 
2316	 8788.61113143819 
2317	 8696.43155429809 
2318	 8602.3895907397 
2319	 8510.18724142364 
2320	 8410.71775898332 
2321	 8320.07551307234 
2322	 8241.00102056552 
2323	 8153.53304411379 
2324	 8065.23883483836 
2325	 7974.60279491605 
2326	 7875.83886362608 
2327	 7783.6781281545 
2328	 7692.19786294557 
2329	 7605.80613334756 
2330	 7525.82801666767 
2331	 7444.14117459611 
2332	 7363.83325278501 
2333	 7286.11733829478 
2334	 7210.81139487445 
2335	 7136.69742693036 
2336	 7054.1282887514 
2337	 6966.10406696313 
2338	 6879.65656871985 
2339	 6788.62014647853 
2340	 6700.5681374627 
2341	 6614.9749330405 
2342	 6537.13066294933 
2343	 6461.6916941147 
2344	 6382.55554413993 
2345	 6310.07863004094 
2346	 6235.8219229097 
2347	 6155.63231730623 
2348	 6076.82395639648 
2349	 6002.99042516752 
2350	 5928.1943009962 
2351	 5847.35955108976 
2352	 5771.68798640685 
2353	 5702.47753830235 
2354	 5631.68206985814 
2355	 5559.1156849866 
2356	 5487.85869644643 
2357	 5421.82486976122 
2358	 5349.93692001453 
2359	 5271.49093971131 
2360	 5200.20721192259 
2361	 5131.31090408874 
2362	 5060.43334984392 
2363	 4991.57195729328 
2364	 4923.73744057321 
2365	 4853.86872001723 
2366	 4786.03484691959 
2367	 4721.63855270642 
2368	 4657.01045607744 
2369	 4593.44628968414 
2370	 4527.3840407971 
2371	 4460.89128211564 
2372	 4395.07793751706 
2373	 4321.46736114374 
2374	 4260.22527858073 
2375	 4216.73626208704 
2376	 4154.38956235775 
2377	 4083.28431147528 
2378	 4020.97399188068 
2379	 3951.5171454725 
2380	 3884.7040866148 
2381	 3833.23829940111 
2382	 3770.36168994636 
2383	 3682.90483357515 
2384	 3622.30207866962 
2385	 3581.65752447876 
2386	 3529.53343485012 
2387	 3490.27675124596 
2388	 3441.52795679703 
2389	 3375.91937733906 
2390	 3316.64691835391 
2391	 3257.1528503388 
2392	 3203.57224489796 
2393	 3153.76109109927 
2394	 3103.20115702281 
2395	 3060.96056058202 
2396	 3012.55334273876 
2397	 2955.99880814198 
2398	 2904.98593055684 
2399	 2859.19714769397 
2400	 2806.65974774326 
2401	 2745.14947744 
2402	 2696.34954334711 
2403	 2653.65523991592 
2404	 2606.10836564552 
2405	 2567.52475549072 
2406	 2525.61959088717 
2407	 2470.17194573889 
2408	 2424.01635437931 
2409	 2388.06754175968 
2410	 2348.41090973445 
2411	 2308.91652084793 
2412	 2271.16521137431 
2413	 2236.01563039745 
2414	 2196.26539278863 
2415	 2151.41362199891 
2416	 2112.61534158294 
2417	 2068.28403565015 
2418	 2035.55198979366 
2419	 2008.98061936862 
2420	 1982.06099588152 
2421	 1940.86401940037 
2422	 1889.39439002956 
2423	 1853.99101633719 
2424	 1825.03075104503 
2425	 1787.53593587313 
2426	 1762.40209359256 
2427	 1736.5109853233 
2428	 1693.80200060232 
2429	 1664.84206838037 
2430	 1642.12461079605 
2431	 1604.78714092906 
2432	 1569.70730692637 
2433	 1551.67395435386 
2434	 1533.08364662815 
2435	 1503.41704097413 
2436	 1476.02834360359 
2437	 1446.00067933773 
2438	 1413.47674925124 
2439	 1388.10303191616 
2440	 1364.73654737714 
2441	 1343.62412817608 
2442	 1325.1512818068 
2443	 1302.28852281998 
2444	 1281.85092450377 
2445	 1258.14744181419 
2446	 1226.89307799782 
2447	 1200.28018110103 
2448	 1180.65795281714 
2449	 1162.14744247832 
2450	 1136.19884294667 
2451	 1117.76896712869 
2452	 1102.67012172918 
2453	 1075.83810983491 
2454	 1050.19820051184 
2455	 1017.55475386209 
2456	 993.458938634178 
2457	 982.442856095792 
2458	 962.981195178652 
2459	 939.941162741615 
2460	 921.728921906614 
2461	 905.759655175772 
2462	 883.277982748844 
2463	 856.083150286543 
2464	 837.887306387949 
2465	 815.759415428366 
2466	 797.586348248092 
2467	 802.46419124479 
2468	 785.745944688145 
2469	 749.92102372625 
2470	 725.790299282415 
2471	 692.127399944124 
2472	 669.175183699945 
2473	 666.409333177464 
2474	 648.383125759203 
2475	 621.049204235181 
2476	 602.634796569943 
2477	 577.80808128233 
2478	 561.148414469559 
2479	 566.817494472296 
2480	 553.501371230003 
2481	 525.148378655007 
2482	 507.608727321885 
2483	 490.877440377708 
2484	 467.810020734705 
2485	 442.493410026473 
2486	 427.061515327337 
2487	 413.219450481049 
2488	 391.664078518731 
2489	 374.005155670847 
2490	 364.183876568242 
2491	 349.236614236013 
2492	 331.72899912514 
2493	 327.515811850375 
2494	 313.700744446751 
2495	 279.857054532421 
2496	 265.849206946522 
2497	 268.055080293563 
2498	 255.687248578823 
2499	 241.426317204996 
2500	 227.263624828907 
